Potential applied (V),Index,WE(1).Current (A),WE(1).Potential (V),Time (s),Current range,,ABS,ABS/AREA,LOG J,,log j,Potential
-0.716705322,1,-0.000151978,-0.71774292,908.9472787,100 mA,,0.000151978,0.000193504,-3.713310474,,-3.69987,-0.71901
-0.715179443,2,-0.000132446,-0.716003418,910.4731577,100 mA,,0.000132446,0.000168636,-3.773050087,,-3.76737,-0.71745
-0.713653564,3,-0.000119934,-0.714538574,911.9990367,100 mA,,0.000119934,0.000152705,-3.816147266,,-3.8381,-0.71589
-0.712127686,4,-0.00011261,-0.712982178,913.5249157,100 mA,,0.00011261,0.000143379,-3.84351345,,-3.91205,-0.71433
-0.710601807,5,-6.71387E-05,-0.711425781,915.0507947,10 mA,,6.71387E-05,8.54836E-05,-4.068117136,,-4.00457,-0.71278
-0.709075928,6,-6.29272E-05,-0.71005249,916.5766737,10 mA,,6.29272E-05,8.01215E-05,-4.096251155,,-4.08582,-0.71122
-0.707550049,7,-5.96924E-05,-0.708496094,918.1025527,10 mA,,5.96924E-05,7.60027E-05,-4.119170966,,-4.13462,-0.70966
-0.70602417,8,-5.69458E-05,-0.707061768,919.6284317,10 mA,,5.69458E-05,7.25056E-05,-4.139628177,,-4.14099,-0.7081
-0.704498291,9,-5.48096E-05,-0.705383301,921.1543107,10 mA,,5.48096E-05,6.97857E-05,-4.156233484,,-4.16745,-0.70654
-0.702972412,10,-4.90723E-05,-0.703887939,922.6801897,1 mA,,4.90723E-05,6.24807E-05,-4.204253772,,-4.19325,-0.70498
-0.701446533,11,-4.76379E-05,-0.702484131,924.2060687,1 mA,,4.76379E-05,6.06545E-05,-4.217136913,,-4.21557,-0.70343
-0.699920654,12,-4.64172E-05,-0.700714111,925.7319477,1 mA,,4.64172E-05,5.91003E-05,-4.228410602,,-4.23157,-0.70187
-0.698394775,13,-4.53186E-05,-0.69909668,927.2578267,1 mA,,4.53186E-05,5.77014E-05,-4.238813363,,-4.23871,-0.70031
-0.696868896,14,-4.44336E-05,-0.697631836,928.7837057,1 mA,,4.44336E-05,5.65746E-05,-4.247378441,,-4.24811,-0.69875
-0.695343018,15,-4.3457E-05,-0.696166992,930.3095847,100 에,,4.3457E-05,5.53312E-05,-4.257029827,,-4.25635,-0.6972
-0.693817139,16,-4.27856E-05,-0.694824219,931.8354636,100 에,,4.27856E-05,5.44764E-05,-4.263791803,,-4.26356,-0.69564
-0.69229126,17,-4.22363E-05,-0.693115234,933.3613426,100 에,,4.22363E-05,5.3777E-05,-4.269403726,,-4.26979,-0.69409
-0.690765381,18,-4.16565E-05,-0.691558838,934.8872216,100 에,,4.16565E-05,5.30387E-05,-4.275407165,,-4.27537,-0.69253
-0.689239502,19,-4.11682E-05,-0.690124512,936.4131006,100 에,,4.11682E-05,5.2417E-05,-4.280527867,,-4.28093,-0.69097
-0.687713623,20,-4.05945E-05,-0.688812256,937.9389796,10 에,,4.05945E-05,5.16865E-05,-4.286622873,,-4.2862,-0.68942
-0.686187744,21,-4.01947E-05,-0.687011719,939.4648586,10 에,,4.01947E-05,5.11775E-05,-4.290921067,,-4.29084,-0.68786
-0.684661865,22,-3.98315E-05,-0.686035156,940.9907376,10 에,,3.98315E-05,5.07151E-05,-4.294862751,,-4.29494,-0.68631
-0.683135986,23,-3.95081E-05,-0.684295654,942.5166166,10 에,,3.95081E-05,5.03032E-05,-4.298404214,,-4.29852,-0.68475
-0.681610107,24,-3.91937E-05,-0.682678223,944.0424956,10 에,,3.91937E-05,4.9903E-05,-4.301873334,,-4.30204,-0.6832
-0.680084229,25,-3.88855E-05,-0.680999756,945.5683746,10 에,,3.88855E-05,4.95106E-05,-4.305302216,,-4.30495,-0.68165
-0.67855835,26,-3.86566E-05,-0.679412842,947.0942536,10 에,,3.86566E-05,4.92191E-05,-4.307866046,,-4.30763,-0.68009
-0.677032471,27,-3.85162E-05,-0.677978516,948.6201326,10 에,,3.85162E-05,4.90404E-05,-4.30944605,,-4.3101,-0.67854
-0.675506592,28,-3.82263E-05,-0.676757813,950.1460116,10 에,,3.82263E-05,4.86713E-05,-4.312727409,,-4.31251,-0.67698
-0.673980713,29,-3.80096E-05,-0.675140381,951.6718906,10 에,,3.80096E-05,4.83954E-05,-4.315196084,,-4.31512,-0.67543
-0.672454834,30,-3.7793E-05,-0.673706055,953.1977696,10 에,,3.7793E-05,4.81195E-05,-4.317678873,,-4.31775,-0.67388
-0.670928955,31,-3.75763E-05,-0.671783447,954.7236486,10 에,,3.75763E-05,4.78436E-05,-4.320175937,,-4.32005,-0.67233
-0.669403076,32,-3.73993E-05,-0.670593262,956.2495276,10 에,,3.73993E-05,4.76183E-05,-4.322226501,,-4.32241,-0.67077
-0.667877197,33,-3.71918E-05,-0.668914795,957.7754066,10 에,,3.71918E-05,4.7354E-05,-4.324643005,,-4.32461,-0.66922
-0.666351318,34,-3.70026E-05,-0.667541504,959.3012856,10 에,,3.70026E-05,4.71131E-05,-4.326858069,,-4.32673,-0.66767
-0.664825439,35,-3.68561E-05,-0.666168213,960.8271646,10 에,,3.68561E-05,4.69266E-05,-4.32858075,,-4.3287,-0.66612
-0.663299561,36,-3.66882E-05,-0.664459229,962.3530436,10 에,,3.66882E-05,4.67129E-05,-4.330563093,,-4.33038,-0.66457
-0.661773682,37,-3.65631E-05,-0.662628174,963.8789226,10 에,,3.65631E-05,4.65536E-05,-4.332046748,,-4.33218,-0.66301
-0.660247803,38,-3.64166E-05,-0.661224365,965.4048016,10 에,,3.64166E-05,4.63671E-05,-4.333790176,,-4.33403,-0.66146
-0.658721924,39,-3.62152E-05,-0.659973145,966.9306806,10 에,,3.62152E-05,4.61106E-05,-4.336198874,,-4.33588,-0.65991
-0.657196045,40,-3.60962E-05,-0.658081055,968.4565596,10 에,,3.60962E-05,4.59591E-05,-4.3376285,,-4.33767,-0.65836
-0.655670166,41,-3.59528E-05,-0.656982422,969.9824386,10 에,,3.59528E-05,4.57765E-05,-4.33935766,,-4.33936,-0.65681
-0.654144287,42,-3.58337E-05,-0.655273438,971.5083175,10 에,,3.58337E-05,4.56249E-05,-4.34079774,,-4.34094,-0.65526
-0.652618408,43,-3.56781E-05,-0.653533936,973.0341965,10 에,,3.56781E-05,4.54268E-05,-4.342688156,,-4.34258,-0.65371
-0.651092529,44,-3.55438E-05,-0.651885986,974.5600755,10 에,,3.55438E-05,4.52558E-05,-4.344325741,,-4.3443,-0.65216
-0.64956665,45,-3.54248E-05,-0.650543213,976.0859545,10 에,,3.54248E-05,4.51043E-05,-4.345782417,,-4.34594,-0.65061
-0.648040771,46,-3.52661E-05,-0.648956299,977.6118335,10 에,,3.52661E-05,4.49022E-05,-4.347732283,,-4.3475,-0.64906
-0.646514893,47,-3.51746E-05,-0.647247314,979.1377125,10 에,,3.51746E-05,4.47856E-05,-4.348861201,,-4.34901,-0.64752
-0.644989014,48,-3.50372E-05,-0.645782471,980.6635915,10 에,,3.50372E-05,4.46108E-05,-4.350560099,,-4.35045,-0.64597
-0.643463135,49,-3.49335E-05,-0.64440918,982.1894705,10 에,,3.49335E-05,4.44787E-05,-4.351848134,,-4.35196,-0.64442
-0.641937256,50,-3.48083E-05,-0.642852783,983.7153495,10 에,,3.48083E-05,4.43194E-05,-4.353406449,,-4.35353,-0.64287
-0.640411377,51,-3.46558E-05,-0.641204834,985.2412285,10 에,,3.46558E-05,4.41251E-05,-4.355314432,,-4.35502,-0.64132
-0.638885498,52,-3.45734E-05,-0.639953613,986.7671075,10 에,,3.45734E-05,4.40202E-05,-4.35634824,,-4.35653,-0.63978
-0.637359619,53,-3.44513E-05,-0.638336182,988.2929865,10 에,,3.44513E-05,4.38647E-05,-4.357884343,,-4.35786,-0.63823
-0.63583374,54,-3.43445E-05,-0.636962891,989.8188655,10 에,,3.43445E-05,4.37288E-05,-4.359232906,,-4.35913,-0.63668
-0.634307861,55,-3.42529E-05,-0.635406494,991.3447445,10 에,,3.42529E-05,4.36122E-05,-4.360392158,,-4.36054,-0.63513
-0.632781982,56,-3.41278E-05,-0.633758545,992.8706235,10 에,,3.41278E-05,4.34529E-05,-4.361981491,,-4.36198,-0.63359
-0.631256104,57,-3.40118E-05,-0.63192749,994.3965025,10 에,,3.40118E-05,4.33052E-05,-4.363459744,,-4.36341,-0.63204
-0.629730225,58,-3.38928E-05,-0.63079834,995.9223815,10 에,,3.38928E-05,4.31537E-05,-4.364982147,,-4.36494,-0.63049
-0.628204346,59,-3.38043E-05,-0.629058838,997.4482605,10 에,,3.38043E-05,4.3041E-05,-4.366117661,,-4.36627,-0.62895
-0.626678467,60,-3.36761E-05,-0.627655029,998.9741395,10 에,,3.36761E-05,4.28778E-05,-4.367767479,,-4.36741,-0.6274
-0.625152588,61,-3.36182E-05,-0.625946045,1000.500018,10 에,,3.36182E-05,4.2804E-05,-4.368515889,,-4.36871,-0.62586
-0.623626709,62,-3.35205E-05,-0.624725342,1002.025897,10 에,,3.35205E-05,4.26796E-05,-4.369779292,,-4.37012,-0.62431
-0.62210083,63,-3.33557E-05,-0.62310791,1003.551776,10 에,,3.33557E-05,4.24698E-05,-4.371919654,,-4.37154,-0.62277
-0.620574951,64,-3.32703E-05,-0.621612549,1005.077655,10 에,,3.32703E-05,4.2361E-05,-4.373033639,,-4.373,-0.62122
-0.619049072,65,-3.31726E-05,-0.62020874,1006.603534,10 에,,3.31726E-05,4.22367E-05,-4.374310272,,-4.37439,-0.61968
-0.617523193,66,-3.30872E-05,-0.618347168,1008.129413,10 에,,3.30872E-05,4.21279E-05,-4.375430413,,-4.37559,-0.61813
-0.615997314,67,-3.29559E-05,-0.616729736,1009.655292,10 에,,3.29559E-05,4.19608E-05,-4.377156275,,-4.37693,-0.61659
-0.614471436,68,-3.28735E-05,-0.615386963,1011.181171,10 에,,3.28735E-05,4.18559E-05,-4.378243472,,-4.37839,-0.61505
-0.612945557,69,-3.27606E-05,-0.613708496,1012.70705,10 에,,3.27606E-05,4.17121E-05,-4.379737768,,-4.37977,-0.6135
-0.611419678,70,-3.26416E-05,-0.612213135,1014.232929,10 에,,3.26416E-05,4.15606E-05,-4.381318422,,-4.38103,-0.61196
-0.609893799,71,-3.25745E-05,-0.610900879,1015.758808,10 에,,3.25745E-05,4.14751E-05,-4.382212618,,-4.38253,-0.61042
-0.60836792,72,-3.24554E-05,-0.609008789,1017.284687,10 에,,3.24554E-05,4.13236E-05,-4.383802322,,-4.38382,-0.60887
-0.606842041,73,-3.23212E-05,-0.607574463,1018.810566,10 에,,3.23212E-05,4.11526E-05,-4.385602848,,-4.38521,-0.60733
-0.605316162,74,-3.22693E-05,-0.606201172,1020.336445,10 에,,3.22693E-05,4.10865E-05,-4.38630051,,-4.38673,-0.60579
-0.603790283,75,-3.21198E-05,-0.604675293,1021.862324,10 에,,3.21198E-05,4.08961E-05,-4.388317712,,-4.38821,-0.60425
-0.602264404,76,-3.2016E-05,-0.603118896,1023.388203,10 에,,3.2016E-05,4.0764E-05,-4.389722929,,-4.38963,-0.60271
-0.600738525,77,-3.19061E-05,-0.601409912,1024.914082,10 에,,3.19061E-05,4.06241E-05,-4.391215779,,-4.39117,-0.60117
-0.599212646,78,-3.18207E-05,-0.600250244,1026.439961,10 에,,3.18207E-05,4.05153E-05,-4.392380443,,-4.39254,-0.59962
-0.597686768,79,-3.17078E-05,-0.598419189,1027.96584,10 에,,3.17078E-05,4.03716E-05,-4.393924269,,-4.3939,-0.59808
-0.596160889,80,-3.1601E-05,-0.596832275,1029.491719,10 에,,3.1601E-05,4.02356E-05,-4.395389713,,-4.39522,-0.59654
-0.59463501,81,-3.15216E-05,-0.595245361,1031.017598,10 에,,3.15216E-05,4.01346E-05,-4.396481539,,-4.39656,-0.595
-0.593109131,82,-3.14209E-05,-0.59362793,1032.543477,10 에,,3.14209E-05,4.00063E-05,-4.397871282,,-4.39798,-0.59346
-0.591583252,83,-3.13049E-05,-0.592437744,1034.069356,10 에,,3.13049E-05,3.98587E-05,-4.399477122,,-4.3995,-0.59192
-0.590057373,84,-3.11737E-05,-0.590637207,1035.595235,10 에,,3.11737E-05,3.96916E-05,-4.401301445,,-4.40114,-0.59038
-0.588531494,85,-3.1073E-05,-0.589385986,1037.121114,10 에,,3.1073E-05,3.95634E-05,-4.402706724,,-4.40274,-0.58884
-0.587005615,86,-3.09601E-05,-0.587799072,1038.646993,10 에,,3.09601E-05,3.94196E-05,-4.404287765,,-4.40433,-0.5873
-0.585479736,87,-3.08441E-05,-0.586273193,1040.172872,10 에,,3.08441E-05,3.92719E-05,-4.405917551,,-4.40596,-0.58576
-0.583953857,88,-3.0722E-05,-0.584838867,1041.698751,10 에,,3.0722E-05,3.91165E-05,-4.407639748,,-4.40763,-0.58422
-0.582427979,89,-3.0603E-05,-0.583312988,1043.22463,10 에,,3.0603E-05,3.8965E-05,-4.409325491,,-4.40915,-0.58269
-0.5809021,90,-3.05084E-05,-0.581695557,1044.750509,10 에,,3.05084E-05,3.88445E-05,-4.410670124,,-4.41071,-0.58115
-0.579376221,91,-3.04077E-05,-0.580413818,1046.276388,10 에,,3.04077E-05,3.87163E-05,-4.412106097,,-4.41242,-0.57961
-0.577850342,92,-3.02582E-05,-0.57901001,1047.802267,10 에,,3.02582E-05,3.85259E-05,-4.414247098,,-4.41408,-0.57807
-0.576324463,93,-3.0127E-05,-0.577178955,1049.328146,10 에,,3.0127E-05,3.83588E-05,-4.41613467,,-4.41584,-0.57653
-0.574798584,94,-3.00476E-05,-0.575775146,1050.854025,10 에,,3.00476E-05,3.82578E-05,-4.417279985,,-4.41763,-0.575
-0.573272705,95,-2.99042E-05,-0.574188232,1052.379904,10 에,,2.99042E-05,3.80752E-05,-4.419358059,,-4.41935,-0.57346
-0.571746826,96,-2.97729E-05,-0.572418213,1053.905783,10 에,,2.97729E-05,3.79081E-05,-4.421268025,,-4.42112,-0.57192
-0.570220947,97,-2.9657E-05,-0.571228027,1055.431662,10 에,,2.9657E-05,3.77604E-05,-4.422962922,,-4.42293,-0.57039
-0.568695068,98,-2.95441E-05,-0.569671631,1056.957541,10 에,,2.95441E-05,3.76167E-05,-4.424619596,,-4.42467,-0.56885
-0.567169189,99,-2.9425E-05,-0.567962646,1058.48342,10 에,,2.9425E-05,3.74651E-05,-4.426372689,,-4.4265,-0.56731
-0.565643311,100,-2.92786E-05,-0.566436768,1060.009299,10 에,,2.92786E-05,3.72786E-05,-4.428540102,,-4.42849,-0.56578
-0.564117432,101,-2.91443E-05,-0.564910889,1061.535178,10 에,,2.91443E-05,3.71077E-05,-4.430536445,,-4.43044,-0.56424
-0.562591553,102,-2.90131E-05,-0.563598633,1063.061057,10 에,,2.90131E-05,3.69406E-05,-4.432496322,,-4.43241,-0.56271
-0.561065674,103,-2.89032E-05,-0.561828613,1064.586936,10 에,,2.89032E-05,3.68007E-05,-4.43414398,,-4.43442,-0.56117
-0.559539795,104,-2.87445E-05,-0.560546875,1066.112815,10 에,,2.87445E-05,3.65986E-05,-4.436535019,,-4.43639,-0.55964
-0.558013916,105,-2.86041E-05,-0.558837891,1067.638694,10 에,,2.86041E-05,3.64199E-05,-4.438661199,,-4.43854,-0.5581
-0.556488037,106,-2.84851E-05,-0.557250977,1069.164573,10 에,,2.84851E-05,3.62684E-05,-4.44047202,,-4.44072,-0.55657
-0.554962158,107,-2.83142E-05,-0.555786133,1070.690452,10 에,,2.83142E-05,3.60508E-05,-4.443085448,,-4.44288,-0.55503
-0.553436279,108,-2.8186E-05,-0.554168701,1072.216331,10 에,,2.8186E-05,3.58876E-05,-4.445055892,,-4.44526,-0.5535
-0.5519104,109,-2.80212E-05,-0.552612305,1073.74221,10 에,,2.80212E-05,3.56778E-05,-4.447602528,,-4.44751,-0.55197
-0.550384521,110,-2.78656E-05,-0.55078125,1075.268089,10 에,,2.78656E-05,3.54796E-05,-4.450021474,,-4.44972,-0.55043
-0.548858643,111,-2.77649E-05,-0.549743652,1076.793968,10 에,,2.77649E-05,3.53514E-05,-4.451593884,,-4.45208,-0.5489
-0.547332764,112,-2.75787E-05,-0.548187256,1078.319847,10 에,,2.75787E-05,3.51143E-05,-4.454515534,,-4.45433,-0.54737
-0.545806885,113,-2.74261E-05,-0.546936035,1079.845726,10 에,,2.74261E-05,3.49201E-05,-4.456925075,,-4.45674,-0.54583
-0.544281006,114,-2.72919E-05,-0.54498291,1081.371605,10 에,,2.72919E-05,3.47491E-05,-4.459056586,,-4.45932,-0.5443
-0.542755127,115,-2.71118E-05,-0.543457031,1082.897484,10 에,,2.71118E-05,3.45198E-05,-4.461931266,,-4.46184,-0.54277
-0.541229248,116,-2.69562E-05,-0.542053223,1084.423363,10 에,,2.69562E-05,3.43217E-05,-4.464431586,,-4.46443,-0.54124
-0.539703369,117,-2.67822E-05,-0.540679932,1085.949242,10 에,,2.67822E-05,3.41002E-05,-4.467243202,,-4.46714,-0.53971
-0.53817749,118,-2.66357E-05,-0.5390625,1087.475121,10 에,,2.66357E-05,3.39137E-05,-4.469625079,,-4.46986,-0.53817
-0.536651611,119,-2.64526E-05,-0.537353516,1089.001,10 에,,2.64526E-05,3.36805E-05,-4.472620914,,-4.47244,-0.53664
-0.535125732,120,-2.62878E-05,-0.535949707,1090.526879,10 에,,2.62878E-05,3.34707E-05,-4.475334949,,-4.47515,-0.53511
-0.533599854,121,-2.61566E-05,-0.534484863,1092.052758,10 에,,2.61566E-05,3.33036E-05,-4.477508321,,-4.47798,-0.53358
-0.532073975,122,-2.59369E-05,-0.532867432,1093.578637,10 에,,2.59369E-05,3.30239E-05,-4.481171987,,-4.48089,-0.53205
-0.530548096,123,-2.57721E-05,-0.531311035,1095.104516,10 에,,2.57721E-05,3.28141E-05,-4.483940162,,-4.48403,-0.53052
-0.529022217,124,-2.55768E-05,-0.529724121,1096.630395,10 에,,2.55768E-05,3.25654E-05,-4.487243976,,-4.48718,-0.52899
-0.527496338,125,-2.53937E-05,-0.527862549,1098.156274,10 에,,2.53937E-05,3.23322E-05,-4.490364294,,-4.49015,-0.52746
-0.525970459,126,-2.52289E-05,-0.526885986,1099.682153,10 에,,2.52289E-05,3.21224E-05,-4.493191879,,-4.4935,-0.52593
-0.52444458,127,-2.50153E-05,-0.52545166,1101.208032,10 에,,2.50153E-05,3.18504E-05,-4.496884881,,-4.49724,-0.5244
-0.522918701,128,-2.47742E-05,-0.523803711,1102.733911,10 에,,2.47742E-05,3.15435E-05,-4.501090769,,-4.5007,-0.52287
-0.521392822,129,-2.45697E-05,-0.521789551,1104.25979,10 에,,2.45697E-05,3.12831E-05,-4.50468999,,-4.50401,-0.52134
-0.519866943,130,-2.44781E-05,-0.520355225,1105.785669,10 에,,2.44781E-05,3.11665E-05,-4.5063113,,-4.50713,-0.51982
-0.518341064,131,-2.42645E-05,-0.519104004,1107.311548,10 에,,2.42645E-05,3.08946E-05,-4.510118063,,-4.51016,-0.51829
-0.516815186,132,-2.40601E-05,-0.51763916,1108.837427,10 에,,2.40601E-05,3.06342E-05,-4.513793201,,-4.51345,-0.51676
-0.515289307,133,-2.3877E-05,-0.516174316,1110.363306,10 에,,2.3877E-05,3.04011E-05,-4.517110975,,-4.51719,-0.51523
-0.513763428,134,-2.36847E-05,-0.51449585,1111.889185,10 에,,2.36847E-05,3.01563E-05,-4.520622133,,-4.5207,-0.5137
-0.512237549,135,-2.34772E-05,-0.513122559,1113.415064,10 에,,2.34772E-05,2.98921E-05,-4.524444084,,-4.52438,-0.51218
-0.51071167,136,-2.32758E-05,-0.511260986,1114.940943,10 에,,2.32758E-05,2.96356E-05,-4.52818607,,-4.52821,-0.51065
-0.509185791,137,-2.3056E-05,-0.509857178,1116.466822,10 에,,2.3056E-05,2.93558E-05,-4.532305348,,-4.53233,-0.50912
-0.507659912,138,-2.28424E-05,-0.508514404,1117.992701,10 에,,2.28424E-05,2.90839E-05,-4.536348012,,-4.53653,-0.5076
-0.506134033,139,-2.25983E-05,-0.507049561,1119.51858,10 에,,2.25983E-05,2.8773E-05,-4.541014753,,-4.54068,-0.50607
-0.504608154,140,-2.2403E-05,-0.505187988,1121.044459,10 에,,2.2403E-05,2.85243E-05,-4.544784592,,-4.54485,-0.50454
-0.503082275,141,-2.22046E-05,-0.503509521,1122.570338,10 에,,2.22046E-05,2.82718E-05,-4.548647126,,-4.54875,-0.50302
-0.501556396,142,-2.19818E-05,-0.502105713,1124.096217,10 에,,2.19818E-05,2.79881E-05,-4.553026402,,-4.5528,-0.50149
-0.500030518,143,-2.18018E-05,-0.500549316,1125.622096,10 에,,2.18018E-05,2.77589E-05,-4.55659837,,-4.55702,-0.49997
-0.498504639,144,-2.15363E-05,-0.499359131,1127.147975,10 에,,2.15363E-05,2.74208E-05,-4.561919699,,-4.56156,-0.49844
-0.49697876,145,-2.13379E-05,-0.497894287,1128.673854,10 에,,2.13379E-05,2.71682E-05,-4.565938397,,-4.56628,-0.49692
-0.495452881,146,-2.10754E-05,-0.496002197,1130.199733,10 에,,2.10754E-05,2.68341E-05,-4.571313242,,-4.57109,-0.49539
-0.493927002,147,-2.08588E-05,-0.494689941,1131.725612,10 에,,2.08588E-05,2.65582E-05,-4.575801297,,-4.57554,-0.49387
-0.492401123,148,-2.06543E-05,-0.492858887,1133.251491,10 에,,2.06543E-05,2.62979E-05,-4.580079466,,-4.58042,-0.49234
-0.490875244,149,-2.04315E-05,-0.491699219,1134.77737,10 에,,2.04315E-05,2.60142E-05,-4.584789235,,-4.58501,-0.49082
-0.489349365,150,-2.0163E-05,-0.489837646,1136.303249,10 에,,2.0163E-05,2.56723E-05,-4.59053551,,-4.58991,-0.4893
-0.487823486,151,-1.99799E-05,-0.488342285,1137.829128,10 에,,1.99799E-05,2.54391E-05,-4.594497475,,-4.59496,-0.48777
-0.486297607,152,-1.97235E-05,-0.48727417,1139.355007,10 에,,1.97235E-05,2.51128E-05,-4.60010566,,-4.59994,-0.48625
-0.484771729,153,-1.94977E-05,-0.485473633,1140.880886,10 에,,1.94977E-05,2.48252E-05,-4.605106928,,-4.60505,-0.48473
-0.48324585,154,-1.92657E-05,-0.483978271,1142.406765,10 에,,1.92657E-05,2.45299E-05,-4.610304027,,-4.61071,-0.4832
-0.481719971,155,-1.90002E-05,-0.482421875,1143.932644,10 에,,1.90002E-05,2.41919E-05,-4.6163307,,-4.61608,-0.48168
-0.480194092,156,-1.87622E-05,-0.480926514,1145.458523,10 에,,1.87622E-05,2.38888E-05,-4.621805957,,-4.62135,-0.48016
-0.478668213,157,-1.85699E-05,-0.479248047,1146.984402,10 에,,1.85699E-05,2.3644E-05,-4.626279234,,-4.62665,-0.47864
-0.477142334,158,-1.83411E-05,-0.47769165,1148.510281,10 에,,1.83411E-05,2.33526E-05,-4.631665344,,-4.632,-0.47712
-0.475616455,159,-1.80817E-05,-0.476287842,1150.03616,10 에,,1.80817E-05,2.30223E-05,-4.637851462,,-4.63759,-0.47559
-0.474090576,160,-1.78467E-05,-0.474700928,1151.562039,10 에,,1.78467E-05,2.27231E-05,-4.643532452,,-4.64324,-0.47407
-0.472564697,161,-1.7627E-05,-0.473449707,1153.087918,10 에,,1.7627E-05,2.24433E-05,-4.648912632,,-4.64907,-0.47255
-0.471038818,162,-1.74072E-05,-0.471557617,1154.613797,10 에,,1.74072E-05,2.21636E-05,-4.654360299,,-4.65494,-0.47103
-0.469512939,163,-1.71265E-05,-0.470275879,1156.139676,10 에,,1.71265E-05,2.18061E-05,-4.661422154,,-4.66076,-0.46951
-0.467987061,164,-1.69128E-05,-0.468780518,1157.665555,10 에,,1.69128E-05,2.15341E-05,-4.666873295,,-4.66673,-0.46799
-0.466461182,165,-1.67084E-05,-0.46685791,1159.191434,10 에,,1.67084E-05,2.12738E-05,-4.672155693,,-4.67268,-0.46647
-0.464935303,166,-1.64551E-05,-0.465484619,1160.717313,10 에,,1.64551E-05,2.09513E-05,-4.678789933,,-4.6786,-0.46495
-0.463409424,167,-1.62231E-05,-0.464385986,1162.243192,10 에,,1.62231E-05,2.06559E-05,-4.684954844,,-4.68507,-0.46343
-0.461883545,168,-1.5976E-05,-0.462402344,1163.769071,10 에,,1.5976E-05,2.03412E-05,-4.69162313,,-4.69153,-0.46191
-0.460357666,169,-1.57379E-05,-0.461151123,1165.29495,10 에,,1.57379E-05,2.00381E-05,-4.698142685,,-4.69782,-0.46039
-0.458831787,170,-1.55304E-05,-0.459686279,1166.820829,10 에,,1.55304E-05,1.97739E-05,-4.703907365,,-4.70431,-0.45887
-0.457305908,171,-1.52863E-05,-0.457702637,1168.346708,10 에,,1.52863E-05,1.94631E-05,-4.710788785,,-4.71091,-0.45736
-0.455780029,172,-1.50421E-05,-0.456298828,1169.872587,10 에,,1.50421E-05,1.91522E-05,-4.717780998,,-4.71748,-0.45584
-0.45425415,173,-1.48163E-05,-0.454925537,1171.398466,10 에,,1.48163E-05,1.88647E-05,-4.724350582,,-4.72409,-0.45432
-0.452728271,174,-1.46118E-05,-0.45324707,1172.924345,10 에,,1.46118E-05,1.86043E-05,-4.730385675,,-4.73086,-0.4528
-0.451202393,175,-1.43768E-05,-0.451812744,1174.450224,10 에,,1.43768E-05,1.83051E-05,-4.737426712,,-4.73761,-0.45128
-0.449676514,176,-1.41205E-05,-0.450378418,1175.976103,10 에,,1.41205E-05,1.79788E-05,-4.745240317,,-4.74453,-0.44977
-0.448150635,177,-1.39221E-05,-0.448883057,1177.501982,10 에,,1.39221E-05,1.77262E-05,-4.751384535,,-4.75188,-0.44825
-0.446624756,178,-1.36871E-05,-0.447052002,1179.027861,10 에,,1.36871E-05,1.7427E-05,-4.758777369,,-4.75879,-0.44673
-0.445098877,179,-1.3443E-05,-0.445465088,1180.55374,10 에,,1.3443E-05,1.71162E-05,-4.766593904,,-4.76615,-0.44524
-0.443572998,180,-1.32507E-05,-0.444244385,1182.079619,10 에,,1.32507E-05,1.68714E-05,-4.772849997,,-4.77377,-0.44373
-0.442047119,181,-1.2973E-05,-0.442779541,1183.605498,10 에,,1.2973E-05,1.65178E-05,-4.782048711,,-4.78105,-0.44223
-0.44052124,182,-1.27869E-05,-0.441101074,1185.131377,10 에,,1.27869E-05,1.62807E-05,-4.788325793,,-4.78849,-0.44073
-0.438995361,183,-1.25763E-05,-0.439422607,1186.657256,10 에,,1.25763E-05,1.60126E-05,-4.795537202,,-4.79618,-0.43923
-0.437469482,184,-1.23322E-05,-0.437866211,1188.183135,10 에,,1.23322E-05,1.57018E-05,-4.804050966,,-4.80353,-0.43773
-0.435943604,185,-1.21216E-05,-0.43649292,1189.709014,10 에,,1.21216E-05,1.54337E-05,-4.811530577,,-4.81153,-0.43623
-0.434417725,186,-1.1911E-05,-0.435058594,1191.234893,10 에,,1.1911E-05,1.51656E-05,-4.819141265,,-4.81948,-0.43473
-0.432891846,187,-1.16852E-05,-0.433441162,1192.760772,10 에,,1.16852E-05,1.4878E-05,-4.82745445,,-4.82698,-0.43323
-0.431365967,188,-1.14838E-05,-0.431945801,1194.286651,10 에,,1.14838E-05,1.46216E-05,-4.835005598,,-4.83512,-0.43173
-0.429840088,189,-1.12885E-05,-0.430389404,1195.81253,10 에,,1.12885E-05,1.43729E-05,-4.842455485,,-4.84304,-0.43023
-0.428314209,190,-1.10382E-05,-0.428894043,1197.338409,10 에,,1.10382E-05,1.40543E-05,-4.852191308,,-4.85123,-0.42872
-0.42678833,191,-1.08673E-05,-0.427368164,1198.864288,10 에,,1.08673E-05,1.38367E-05,-4.858967843,,-4.85995,-0.42722
-0.425262451,192,-1.06262E-05,-0.425720215,1200.390167,10 에,,1.06262E-05,1.35297E-05,-4.86871105,,-4.86833,-0.42572
-0.423736572,193,-1.04218E-05,-0.424072266,1201.916046,10 에,,1.04218E-05,1.32694E-05,-4.877149108,,-4.87645,-0.42422
-0.422210693,194,-1.0257E-05,-0.422790527,1203.441925,10 에,,1.0257E-05,1.30596E-05,-4.884071304,,-4.88495,-0.42272
-0.420684814,195,-1.00403E-05,-0.421112061,1204.967804,10 에,,1.00403E-05,1.27837E-05,-4.893343918,,-4.89309,-0.42121
-0.419158936,196,-9.84497E-06,-0.41973877,1206.493683,10 에,,9.84497E-06,1.2535E-05,-4.901875453,,-4.90178,-0.41971
-0.417633057,197,-9.64661E-06,-0.41809082,1208.019562,10 에,,9.64661E-06,1.22824E-05,-4.91071532,,-4.9111,-0.4182
-0.416107178,198,-9.43909E-06,-0.416687012,1209.545441,10 에,,9.43909E-06,1.20182E-05,-4.920159896,,-4.9199,-0.4167
-0.414581299,199,-9.24377E-06,-0.414886475,1211.07132,10 에,,9.24377E-06,1.17695E-05,-4.929240543,,-4.92855,-0.4152
-0.41305542,200,-9.08203E-06,-0.413787842,1212.597199,10 에,,9.08203E-06,1.15636E-05,-4.936906889,,-4.93778,-0.41369
-0.411529541,201,-8.88672E-06,-0.412261963,1214.123078,10 에,,8.88672E-06,1.13149E-05,-4.946348446,,-4.94695,-0.41219
-0.410003662,202,-8.66089E-06,-0.410583496,1215.648957,10 에,,8.66089E-06,1.10274E-05,-4.957527425,,-4.95615,-0.41069
-0.408477783,203,-8.51135E-06,-0.408782959,1217.174836,10 에,,8.51135E-06,1.0837E-05,-4.965091302,,-4.96521,-0.40918
-0.406951904,204,-8.34045E-06,-0.407501221,1218.700715,10 에,,8.34045E-06,1.06194E-05,-4.973900185,,-4.97458,-0.40768
-0.405426025,205,-8.1665E-06,-0.406066895,1220.226594,10 에,,8.1665E-06,1.03979E-05,-4.983053707,,-4.98357,-0.40618
-0.403900146,206,-7.95288E-06,-0.404388428,1221.752473,10 에,,7.95288E-06,1.01259E-05,-4.994565405,,-4.99298,-0.40467
-0.402374268,207,-7.82166E-06,-0.402709961,1223.278352,10 에,,7.82166E-06,9.95884E-06,-5.00179121,,-5.00242,-0.40317
-0.400848389,208,-7.65076E-06,-0.40133667,1224.804231,10 에,,7.65076E-06,9.74125E-06,-5.011385482,,-5.01216,-0.40167
-0.39932251,209,-7.4646E-06,-0.399505615,1226.33011,10 에,,7.4646E-06,9.50422E-06,-5.022083364,,-5.02175,-0.40016
-0.397796631,210,-7.2876E-06,-0.398406982,1227.855989,10 에,,7.2876E-06,9.27886E-06,-5.032505494,,-5.03172,-0.39866
-0.396270752,211,-7.14111E-06,-0.396881104,1229.381868,10 에,,7.14111E-06,9.09235E-06,-5.041323959,,-5.04182,-0.39715
-0.394744873,212,-6.98853E-06,-0.395446777,1230.907747,10 에,,6.98853E-06,8.89807E-06,-5.050704334,,-5.05134,-0.39565
-0.393218994,213,-6.80542E-06,-0.393432617,1232.433626,10 에,,6.80542E-06,8.66493E-06,-5.062234953,,-5.06121,-0.39414
-0.391693115,214,-6.6803E-06,-0.392242432,1233.959505,10 에,,6.6803E-06,8.50562E-06,-5.070294055,,-5.0707,-0.39264
-0.390167236,215,-6.5155E-06,-0.390625,1235.485384,10 에,,6.5155E-06,8.2958E-06,-5.081141937,,-5.0807,-0.39113
-0.388641357,216,-6.39343E-06,-0.388885498,1237.011263,10 에,,6.39343E-06,8.14037E-06,-5.089355789,,-5.09067,-0.38963
-0.387115479,217,-6.20117E-06,-0.387664795,1238.537142,10 에,,6.20117E-06,7.89558E-06,-5.102616113,,-5.10157,-0.38812
-0.3855896,218,-6.06689E-06,-0.385620117,1240.063021,10 에,,6.06689E-06,7.72461E-06,-5.112123436,,-5.11225,-0.38662
-0.384063721,219,-5.91125E-06,-0.38470459,1241.5889,10 에,,5.91125E-06,7.52644E-06,-5.123410196,,-5.12364,-0.38511
-0.382537842,220,-5.77393E-06,-0.383239746,1243.114779,10 에,,5.77393E-06,7.35159E-06,-5.133618684,,-5.13406,-0.38361
-0.381011963,221,-5.62134E-06,-0.381286621,1244.640658,10 에,,5.62134E-06,7.15731E-06,-5.14525019,,-5.14368,-0.3821
-0.379486084,222,-5.51758E-06,-0.379760742,1246.166537,10 에,,5.51758E-06,7.0252E-06,-5.15334139,,-5.1537,-0.38038
-0.377960205,223,-5.41382E-06,-0.378265381,1247.692416,10 에,,5.41382E-06,6.89309E-06,-5.161586201,,-5.16353,-0.37888
-0.376434326,224,-5.23682E-06,-0.376953125,1249.218295,10 에,,5.23682E-06,6.66772E-06,-5.176022533,,-5.17389,-0.37738
-0.374908447,225,-5.13611E-06,-0.375366211,1250.744174,10 에,,5.13611E-06,6.5395E-06,-5.1844557,,-5.18567,-0.37588
-0.373382568,226,-4.98352E-06,-0.373809814,1252.270053,10 에,,4.98352E-06,6.34522E-06,-5.197553632,,-5.19767,-0.37437
-0.371856689,227,-4.84924E-06,-0.372253418,1253.795932,10 에,,4.84924E-06,6.17425E-06,-5.209415919,,-5.20843,-0.37287
-0.370330811,228,-4.73328E-06,-0.370574951,1255.321811,10 에,,4.73328E-06,6.02659E-06,-5.219928019,,-5.2146,-0.37137
-0.368804932,229,-4.62646E-06,-0.369384766,1256.84769,10 에,,4.62646E-06,5.8906E-06,-5.229840615,,-5.2336,-0.36987
-0.367279053,230,-4.49524E-06,-0.367584229,1258.373569,10 에,,4.49524E-06,5.72352E-06,-5.242337069,,-5.26028,-0.36837
-0.365753174,231,-3.8501E-06,-0.36630249,1259.899448,1 에,,3.8501E-06,4.9021E-06,-5.309618136,,-5.29063,-0.36686
-0.364227295,232,-3.76404E-06,-0.36529541,1261.425327,1 에,,3.76404E-06,4.79252E-06,-5.319435872,,-5.31819,-0.36536
-0.362701416,233,-3.64624E-06,-0.364074707,1262.951206,1 에,,3.64624E-06,4.64254E-06,-5.333244602,,-5.33693,-0.36385
-0.361175537,234,-3.573E-06,-0.361480713,1264.477085,1 에,,3.573E-06,4.54928E-06,-5.342057103,,-5.34216,-0.36235
-0.359649658,235,-3.48907E-06,-0.360870361,1266.002964,1 에,,3.48907E-06,4.44243E-06,-5.352379613,,-5.35264,-0.36084
-0.358123779,236,-3.39905E-06,-0.35824585,1267.528843,1 에,,3.39905E-06,4.3278E-06,-5.363732603,,-5.36419,-0.35934
-0.3565979,237,-3.30017E-06,-0.356323242,1269.054722,1 에,,3.30017E-06,4.20191E-06,-5.376553451,,-5.37746,-0.35783
-0.355072021,238,-3.17596E-06,-0.355407715,1270.580601,1 에,,3.17596E-06,4.04376E-06,-5.393214262,,-5.39114,-0.35633
-0.353546143,239,-3.08716E-06,-0.354492188,1272.10648,1 에,,3.08716E-06,3.93069E-06,-5.405530996,,-5.40803,-0.35482
-0.352020264,240,-2.98431E-06,-0.352539063,1273.632359,1 에,,2.98431E-06,3.79975E-06,-5.42024537,,-5.42029,-0.35332
-0.350494385,241,-2.85706E-06,-0.350494385,1275.158238,1 에,,2.85706E-06,3.63772E-06,-5.43917118,,-5.43239,-0.35181
-0.348968506,242,-2.883E-06,-0.346832275,1276.684117,1 에,,2.883E-06,3.67074E-06,-5.435245901,,-5.44396,-0.35031
-0.347442627,243,-2.73529E-06,-0.347747803,1278.209996,1 에,,2.73529E-06,3.48268E-06,-5.45808642,,-5.45376,-0.3488
-0.345916748,244,-2.68799E-06,-0.345916748,1279.735875,1 에,,2.68799E-06,3.42245E-06,-5.46566251,,-5.46585,-0.3473
-0.344390869,245,-2.61963E-06,-0.345092773,1281.261754,1 에,,2.61963E-06,3.33542E-06,-5.476850107,,-5.47958,-0.34579
-0.34286499,246,-2.51068E-06,-0.343841553,1282.787633,1 에,,2.51068E-06,3.1967E-06,-5.495298319,,-5.49065,-0.34428
-0.341339111,247,-2.48474E-06,-0.34197998,1284.313512,1 에,,2.48474E-06,3.16367E-06,-5.499808718,,-5.5027,-0.34277
-0.339813232,248,-2.38373E-06,-0.33996582,1285.839391,1 에,,2.38373E-06,3.03506E-06,-5.517833179,,-5.51839,-0.34127
-0.338287354,249,-2.32391E-06,-0.338745117,1287.36527,1 에,,2.32391E-06,2.9589E-06,-5.528869909,,-5.52913,-0.33976
-0.336761475,250,-2.19666E-06,-0.336975098,1288.891149,1 에,,2.19666E-06,2.79687E-06,-5.553327974,,-5.54751,-0.33825
-0.335235596,251,-2.20642E-06,-0.335784912,1290.417028,1 에,,2.20642E-06,2.8093E-06,-5.551401519,,-5.56241,-0.33674
-0.333709717,252,-2.01813E-06,-0.333953857,1291.942907,1 에,,2.01813E-06,2.56956E-06,-5.590141294,,-5.5804,-0.33523
-0.332183838,253,-2.01508E-06,-0.332489014,1293.468786,1 에,,2.01508E-06,2.56567E-06,-5.590798519,,-5.59588,-0.33373
-0.330657959,254,-1.8985E-06,-0.330383301,1294.994665,1 에,,1.8985E-06,2.41724E-06,-5.616679615,,-5.61327,-0.33222
-0.32913208,255,-1.86646E-06,-0.329559326,1296.520544,1 에,,1.86646E-06,2.37644E-06,-5.62407234,,-5.62487,-0.33071
-0.327606201,256,-1.79352E-06,-0.328308105,1298.046423,1 에,,1.79352E-06,2.28358E-06,-5.641384126,,-5.64323,-0.3292
-0.326080322,257,-1.71997E-06,-0.326629639,1299.572302,1 에,,1.71997E-06,2.18993E-06,-5.659568832,,-5.66127,-0.32769
-0.324554443,258,-1.63055E-06,-0.324127197,1301.098181,1 에,,1.63055E-06,2.07609E-06,-5.682754642,,-5.68004,-0.32618
-0.323028564,259,-1.56647E-06,-0.322601318,1302.62406,1 에,,1.56647E-06,1.99449E-06,-5.700168552,,-5.69617,-0.32467
-0.321502686,260,-1.54114E-06,-0.321655273,1304.149939,1 에,,1.54114E-06,1.96224E-06,-5.707248438,,-5.71282,-0.32315
-0.319976807,261,-1.47156E-06,-0.32043457,1305.675818,1 에,,1.47156E-06,1.87365E-06,-5.72731261,,-5.72807,-0.32164
-0.318450928,262,-1.3974E-06,-0.318695068,1307.201697,1 에,,1.3974E-06,1.77922E-06,-5.749769173,,-5.74417,-0.32013
-0.316925049,263,-1.35742E-06,-0.317016602,1308.727576,1 에,,1.35742E-06,1.72832E-06,-5.762375038,,-5.76587,-0.31862
-0.31539917,264,-1.29456E-06,-0.3152771,1310.253455,1 에,,1.29456E-06,1.64828E-06,-5.782969152,,-5.78634,-0.3171
-0.313873291,265,-1.20361E-06,-0.314300537,1311.779334,1 에,,1.20361E-06,1.53249E-06,-5.81460291,,-5.80917,-0.31559
-0.312347412,266,-1.16028E-06,-0.312255859,1313.305213,1 에,,1.16028E-06,1.47731E-06,-5.830527704,,-5.83331,-0.31408
-0.310821533,267,-1.08948E-06,-0.310882568,1314.831092,1 에,,1.08948E-06,1.38717E-06,-5.8578716,,-5.85676,-0.31257
-0.309295654,268,-1.04523E-06,-0.309570313,1316.356971,1 에,,1.04523E-06,1.33082E-06,-5.87587924,,-5.87701,-0.31105
-0.307769775,269,-9.87854E-07,-0.307891846,1317.88285,1 에,,9.87854E-07,1.25777E-06,-5.900397117,,-5.8965,-0.30954
-0.306243896,270,-9.5459E-07,-0.305999756,1319.408729,1 에,,9.5459E-07,1.21542E-06,-5.915273072,,-5.91764,-0.30803
-0.304718018,271,-9.10339E-07,-0.305480957,1320.934608,1 에,,9.10339E-07,1.15908E-06,-5.935886563,,-5.94103,-0.30652
-0.303192139,272,-8.38318E-07,-0.303009033,1322.460487,1 에,,8.38318E-07,1.06738E-06,-5.971681157,,-5.96692,-0.30501
-0.30166626,273,-8.02612E-07,-0.302490234,1323.986366,1 에,,8.02612E-07,1.02192E-06,-5.990584068,,-5.98918,-0.30349
-0.300140381,274,-7.56531E-07,-0.300292969,1325.512245,1 에,,7.56531E-07,9.63245E-07,-6.01626329,,-6.01253,-0.30198
-0.298614502,275,-7.42188E-07,-0.299041748,1327.038124,1 에,,7.42188E-07,9.44982E-07,-6.024576246,,-6.03492,-0.30017
-0.297088623,276,-6.6864E-07,-0.297698975,1328.564003,1 에,,6.6864E-07,8.51339E-07,-6.069897439,,-6.06475,-0.29866
-0.295562744,277,-6.27747E-07,-0.29574585,1330.089882,1 에,,6.27747E-07,7.99272E-07,-6.097305525,,-6.10025,-0.29716
-0.294036865,278,-5.71594E-07,-0.294067383,1331.615761,1 에,,5.71594E-07,7.27776E-07,-6.138002039,,-6.13575,-0.29565
-0.292510986,279,-5.2948E-07,-0.292572021,1333.14164,1 에,,5.2948E-07,6.74155E-07,-6.171240337,,-6.1649,-0.29414
-0.290985107,280,-5.08118E-07,-0.291381836,1334.667519,1 에,,5.08118E-07,6.46956E-07,-6.189125578,,-6.19689,-0.29264
-0.289459229,281,-4.65393E-07,-0.289733887,1336.193398,1 에,,4.65393E-07,5.92557E-07,-6.227269973,,-6.22759,-0.29113
-0.28793335,282,-4.25415E-07,-0.287322998,1337.719277,1 에,,4.25415E-07,5.41655E-07,-6.266277043,,-6.25817,-0.28962
-0.286407471,283,-3.94287E-07,-0.287231445,1339.245156,1 에,,3.94287E-07,5.02022E-07,-6.299277303,,-6.25778,-0.28812
-0.284881592,284,-3.59192E-07,-0.284759521,1340.771035,1 에,,3.59192E-07,4.57337E-07,-6.339763353,,-6.37803,-0.28661
-0.283355713,285,-2.96631E-07,-0.284118652,1342.296914,1 에,,2.96631E-07,3.77682E-07,-6.422873551,,-6.5621,-0.2851
-0.281829834,286,-8.91418E-08,-0.282684326,1343.822793,100 nA,,8.91418E-08,1.13499E-07,-6.945008259,,-6.76522,-0.28359
-0.280303955,287,-8.30078E-08,-0.280670166,1345.348672,100 nA,,8.30078E-08,1.05689E-07,-6.975970912,,-6.97896,-0.28208
-0.278778076,288,-6.54907E-08,-0.279418945,1346.874551,100 nA,,6.54907E-08,8.33854E-08,-7.078910099,,-7.15689,-0.28057
-0.277252197,289,-3.95508E-08,-0.276855469,1348.40043,100 nA,,3.95508E-08,5.03576E-08,-7.297934815,,-7.28298,-0.27906
-0.275726318,290,-2.78625E-08,-0.276092529,1349.926309,100 nA,,2.78625E-08,3.54757E-08,-7.450069039,,-7.4845,-0.27756
-0.274200439,291,-1.88293E-08,-0.274139404,1351.452188,100 nA,,1.88293E-08,2.39743E-08,-7.620254652,,-7.47291,-0.27605
-0.272674561,292,1.93787E-08,-0.272979736,1352.978067,100 nA,,1.93787E-08,2.46737E-08,-7.607766091,,-7.58605,-0.27454
-0.271148682,293,3.96729E-08,-0.271972656,1354.503946,100 nA,,3.96729E-08,5.0513E-08,-7.296596464,,-7.6777,-0.27302
-0.269622803,294,5.05066E-09,-0.270751953,1356.029825,10 nA,,5.05066E-09,6.4307E-09,-8.191741818,,-7.85245,-0.27151
-0.268096924,295,1.0141E-08,-0.267730713,1357.555704,10 nA,,1.0141E-08,1.29119E-08,-7.889009475,,-7.99642,-0.27
-0.266571045,296,5.76172E-09,-0.265991211,1359.081583,10 nA,,5.76172E-09,7.33605E-09,-8.134537826,,-8.025,-0.26849
-0.265045166,297,1.3327E-08,-0.264831543,1360.607462,10 nA,,1.3327E-08,1.69685E-08,-7.770356624,,-7.80313,-0.26698
-0.263519287,298,1.88141E-08,-0.263061523,1362.133341,10 nA,,1.88141E-08,2.39548E-08,-7.620606735,,-7.70729,-0.26547
-0.261993408,299,1.93512E-08,-0.26159668,1363.65922,10 nA,,1.93512E-08,2.46387E-08,-7.608382063,,-7.58386,-0.26396
-0.260467529,300,2.05078E-08,-0.262390137,1365.185099,10 nA,,2.05078E-08,2.61114E-08,-7.583170543,,-7.56098,-0.26245
-0.25894165,301,2.11731E-08,-0.258483887,1366.710978,10 nA,,2.11731E-08,2.69584E-08,-7.569305521,,-7.56111,-0.26094
-0.257415771,302,2.57019E-08,-0.257141113,1368.236857,10 nA,,2.57019E-08,3.27247E-08,-7.485124579,,-7.53349,-0.25943
-0.255889893,303,2.10358E-08,-0.257019043,1369.762736,10 nA,,2.10358E-08,2.67836E-08,-7.572131538,,-7.50776,-0.25791
-0.254364014,304,2.74841E-08,-0.253997803,1371.288615,10 nA,,2.74841E-08,3.49939E-08,-7.456007874,,-7.49412,-0.2564
-0.252838135,305,2.65503E-08,-0.254364014,1372.814494,10 nA,,2.65503E-08,3.38049E-08,-7.471020564,,-7.47447,-0.25489
-0.251312256,306,2.65076E-08,-0.250915527,1374.340373,10 nA,,2.65076E-08,3.37505E-08,-7.471719991,,-7.43535,-0.25338
-0.249786377,307,3.10394E-08,-0.259643555,1375.866252,10 nA,,3.10394E-08,3.95206E-08,-7.403176162,,-7.44748,-0.25186
-0.248260498,308,2.93365E-08,-0.24822998,1377.392131,10 nA,,2.93365E-08,3.73525E-08,-7.427680874,,-7.42722,-0.25034
-0.246734619,309,2.74933E-08,-0.24621582,1378.91801,10 nA,,2.74933E-08,3.50055E-08,-7.455863229,,-7.405,-0.24883
-0.24520874,310,3.54828E-08,-0.244873047,1380.443889,10 nA,,3.54828E-08,4.51781E-08,-7.345072144,,-7.3775,-0.24732
-0.243682861,311,3.57086E-08,-0.24331665,1381.969768,10 nA,,3.57086E-08,4.54656E-08,-7.342316837,,-7.34094,-0.2458
-0.242156982,312,3.86658E-08,-0.248291016,1383.495647,10 nA,,3.86658E-08,4.92308E-08,-7.307763201,,-7.32237,-0.24429
-0.240631104,313,3.60229E-08,-0.239929199,1385.021526,10 nA,,3.60229E-08,4.58658E-08,-7.338510615,,-7.32375,-0.24278
-0.239105225,314,3.5849E-08,-0.238586426,1386.547404,10 nA,,3.5849E-08,4.56444E-08,-7.340612848,,-7.33337,-0.24126
-0.237579346,315,3.86932E-08,-0.239105225,1388.073283,10 nA,,3.86932E-08,4.92658E-08,-7.307454814,,-7.33902,-0.23974
-0.236053467,316,3.42712E-08,-0.24710083,1389.599162,10 nA,,3.42712E-08,4.36355E-08,-7.36016006,,-7.31001,-0.23823
-0.234527588,317,4.03473E-08,-0.233978271,1391.125041,10 nA,,4.03473E-08,5.13718E-08,-7.289275511,,-7.31016,-0.23671
-0.233001709,318,4.39056E-08,-0.232696533,1392.65092,10 nA,,4.39056E-08,5.59024E-08,-7.252569573,,-7.29551,-0.23519
-0.23147583,319,3.53363E-08,-0.230865479,1394.176799,10 nA,,3.53363E-08,4.49916E-08,-7.346868762,,-7.2801,-0.23367
-0.229949951,320,4.57306E-08,-0.22958374,1395.702678,10 nA,,4.57306E-08,5.8226E-08,-7.234883069,,-7.27689,-0.23216
-0.228424072,321,4.17297E-08,-0.227874756,1397.228557,10 nA,,4.17297E-08,5.3132E-08,-7.274644241,,-7.25384,-0.23064
-0.226898193,322,4.72076E-08,-0.233795166,1398.754436,10 nA,,4.72076E-08,6.01066E-08,-7.221077577,,-7.22643,-0.22912
-0.225372314,323,4.95026E-08,-0.224639893,1400.280315,10 nA,,4.95026E-08,6.30286E-08,-7.200462192,,-7.22103,-0.22761
-0.223846436,324,4.60083E-08,-0.223388672,1401.806194,10 nA,,4.60083E-08,5.85796E-08,-7.232253688,,-7.19684,-0.22609
-0.222320557,325,5.24414E-08,-0.222503662,1403.332073,10 nA,,5.24414E-08,6.67705E-08,-7.175415552,,-7.19569,-0.22457
-0.220794678,326,5.17761E-08,-0.220458984,1404.857952,10 nA,,5.17761E-08,6.59234E-08,-7.180960354,,-7.18874,-0.22305
-0.219268799,327,4.93195E-08,-0.233612061,1406.383831,10 nA,,4.93195E-08,6.27955E-08,-7.202071586,,-7.18502,-0.22154
-0.21774292,328,5.17059E-08,-0.217285156,1407.90971,10 nA,,5.17059E-08,6.5834E-08,-7.181549505,,-7.19723,-0.22002
-0.216217041,329,4.90631E-08,-0.215606689,1409.435589,10 nA,,4.90631E-08,6.24691E-08,-7.204334805,,-7.19314,-0.2185
-0.214691162,330,5.07782E-08,-0.217193604,1410.961468,10 nA,,5.07782E-08,6.46528E-08,-7.189412595,,-7.18071,-0.21698
-0.213165283,331,5.38544E-08,-0.344177246,1412.487347,10 nA,,5.38544E-08,6.85695E-08,-7.163868931,,-7.18019,-0.21546
-0.211639404,332,5.33417E-08,-0.2109375,1414.013226,10 nA,,5.33417E-08,6.79167E-08,-7.168023234,,-7.17309,-0.21394
-0.210113525,333,5.04364E-08,-0.209594727,1415.539105,10 nA,,5.04364E-08,6.42176E-08,-7.192345789,,-7.17395,-0.21242
-0.208587646,334,5.34302E-08,-0.208007813,1417.064984,10 nA,,5.34302E-08,6.80294E-08,-7.167303278,,-7.17608,-0.2109
-0.207061768,335,5.30975E-08,-0.209899902,1418.590863,10 nA,,5.30975E-08,6.76059E-08,-7.170015528,,-7.16804,-0.20938
-0.205535889,336,5.38239E-08,-0.204833984,1420.116742,10 nA,,5.38239E-08,6.85307E-08,-7.164115101,,-7.16864,-0.20786
-0.20401001,337,5.45685E-08,-0.316558838,1421.642621,10 nA,,5.45685E-08,6.94787E-08,-7.158148013,,-7.16208,-0.20634
-0.202484131,338,5.15808E-08,-0.204833984,1423.1685,10 nA,,5.15808E-08,6.56747E-08,-7.182601719,,-7.15625,-0.20482
-0.200958252,339,5.94818E-08,-0.200592041,1424.694379,10 nA,,5.94818E-08,7.57346E-08,-7.120705695,,-7.15565,-0.2033
-0.199432373,340,5.42542E-08,-0.203796387,1426.220258,10 nA,,5.42542E-08,6.90785E-08,-7.160656914,,-7.15082,-0.20177
-0.197906494,341,5.53284E-08,-0.197296143,1427.746137,10 nA,,5.53284E-08,7.04463E-08,-7.152142012,,-7.22509,-0.20025
-0.196380615,342,5.96832E-08,-0.195739746,1429.272016,10 nA,,5.96832E-08,7.5991E-08,-7.119237581,,-7.07976,-0.19873
-0.194854736,343,6.3562E-08,-0.201660156,1430.797895,10 nA,,6.3562E-08,8.09297E-08,-7.091892247,,-6.78613,-0.19721
-0.193328857,344,5.62408E-07,-0.193023682,1432.323774,100 nA,,5.62408E-07,7.16081E-07,-6.145038046,,-6.46053,-0.19569
-0.191802979,345,5.56335E-07,-0.192352295,1433.849653,100 nA,,5.56335E-07,7.08348E-07,-6.149753148,,-6.19386,-0.19416
-0.1902771,346,5.5307E-07,-0.18963623,1435.375532,100 nA,,5.5307E-07,7.04191E-07,-6.152309726,,-6.05922,-0.19264
-0.188751221,347,5.53192E-07,-0.189208984,1436.901411,100 nA,,5.53192E-07,7.04346E-07,-6.152213882,,-6.14565,-0.19112
-0.187225342,348,5.85419E-07,-0.187103271,1438.42729,100 nA,,5.85419E-07,7.45378E-07,-6.12762329,,-6.13623,-0.18959
-0.185699463,349,5.76538E-07,-0.185180664,1439.953169,100 nA,,5.76538E-07,7.34071E-07,-6.134261879,,-6.13244,-0.18807
-0.184173584,350,5.89996E-07,-0.184234619,1441.479048,100 nA,,5.89996E-07,7.51207E-07,-6.124240565,,-6.12945,-0.18654
-0.182647705,351,5.67902E-07,-0.182250977,1443.004927,100 nA,,5.67902E-07,7.23075E-07,-6.14081678,,-6.13057,-0.18502
-0.181121826,352,5.92926E-07,-0.181030273,1444.530806,100 nA,,5.92926E-07,7.54937E-07,-6.122089368,,-6.12698,-0.1835
-0.179595947,353,5.91431E-07,-0.179382324,1446.056685,100 nA,,5.91431E-07,7.53033E-07,-6.123186044,,-6.1247,-0.18197
-0.178070068,354,5.96588E-07,-0.177703857,1447.582564,100 nA,,5.96588E-07,7.596E-07,-6.11941527,,-6.14826,-0.18044
-0.176544189,355,5.99609E-07,-0.176635742,1449.108443,100 nA,,5.99609E-07,7.63446E-07,-6.117221467,,-6.09977,-0.17892
-0.175018311,356,6.10931E-07,-0.174346924,1450.634322,100 nA,,6.10931E-07,7.77862E-07,-6.109097437,,-6.00645,-0.17739
-0.173492432,357,1.27838E-06,-0.174072266,1452.160201,1 에,,1.27838E-06,1.62769E-06,-5.788429456,,-5.89645,-0.17586
-0.171966553,358,1.26343E-06,-0.173034668,1453.68608,1 에,,1.26343E-06,1.60865E-06,-5.793539475,,-5.80121,-0.17433
-0.170440674,359,1.31165E-06,-0.170623779,1455.211959,1 에,,1.31165E-06,1.67004E-06,-5.777273405,,-5.75119,-0.17281
-0.168914795,360,1.31256E-06,-0.169158936,1456.737838,1 에,,1.31256E-06,1.6712E-06,-5.776970374,,-5.77715,-0.17128
-0.167388916,361,1.32263E-06,-0.167480469,1458.263717,1 에,,1.32263E-06,1.68403E-06,-5.773650909,,-5.77559,-0.16975
-0.165863037,362,1.30798E-06,-0.165466309,1459.789596,1 에,,1.30798E-06,1.66538E-06,-5.77848765,,-5.77811,-0.16822
-0.164337158,363,1.29822E-06,-0.164520264,1461.315475,1 에,,1.29822E-06,1.65294E-06,-5.781742331,,-5.77878,-0.16669
-0.162811279,364,1.31714E-06,-0.162536621,1462.841354,1 에,,1.31714E-06,1.67703E-06,-5.77545838,,-5.77683,-0.16516
-0.1612854,365,1.32751E-06,-0.16104126,1464.367233,1 에,,1.32751E-06,1.69024E-06,-5.772050559,,-5.77091,-0.16363
-0.159759521,366,1.35742E-06,-0.159576416,1465.893112,1 에,,1.35742E-06,1.72832E-06,-5.762375038,,-5.76267,-0.1621
-0.158233643,367,1.37634E-06,-0.158569336,1467.418991,1 에,,1.37634E-06,1.75241E-06,-5.756363274,,-5.75704,-0.16057
-0.156707764,368,1.3974E-06,-0.156463623,1468.94487,1 에,,1.3974E-06,1.77922E-06,-5.749769173,,-5.75162,-0.15904
-0.155181885,369,1.3913E-06,-0.155700684,1470.470749,1 에,,1.3913E-06,1.77145E-06,-5.751670224,,-5.74893,-0.15751
-0.153656006,370,1.41327E-06,-0.1534729,1471.996628,1 에,,1.41327E-06,1.79943E-06,-5.744865035,,-5.74594,-0.15598
-0.152130127,371,1.41266E-06,-0.151794434,1473.522507,1 에,,1.41266E-06,1.79865E-06,-5.745052636,,-5.74468,-0.15445
-0.150604248,372,1.4267E-06,-0.151092529,1475.048386,1 에,,1.4267E-06,1.81653E-06,-5.740758201,,-5.74274,-0.15292
-0.149078369,373,1.4151E-06,-0.149139404,1476.574265,1 에,,1.4151E-06,1.80176E-06,-5.74430272,,-5.74191,-0.15139
-0.14755249,374,1.43036E-06,-0.147460938,1478.100144,1 에,,1.43036E-06,1.82119E-06,-5.739644863,,-5.7399,-0.14985
-0.146026611,375,1.4389E-06,-0.146026611,1479.626023,1 에,,1.4389E-06,1.83207E-06,-5.737058119,,-5.73741,-0.14832
-0.144500732,376,1.44745E-06,-0.144836426,1481.151902,1 에,,1.44745E-06,1.84295E-06,-5.734486692,,-5.73416,-0.14679
-0.142974854,377,1.45691E-06,-0.143127441,1482.677781,1 에,,1.45691E-06,1.85499E-06,-5.731657402,,-5.7328,-0.14525
-0.141448975,378,1.45416E-06,-0.14163208,1484.20366,1 에,,1.45416E-06,1.8515E-06,-5.732476911,,-5.73241,-0.14372
-0.139923096,379,1.45569E-06,-0.139678955,1485.729539,1 에,,1.45569E-06,1.85344E-06,-5.732021437,,-5.73113,-0.14219
-0.138397217,380,1.45813E-06,-0.138580322,1487.255418,1 에,,1.45813E-06,1.85655E-06,-5.731293671,,-5.73007,-0.14066
-0.136871338,381,1.47614E-06,-0.13671875,1488.781297,1 에,,1.47614E-06,1.87947E-06,-5.725963729,,-5.72884,-0.13912
-0.135345459,382,1.46759E-06,-0.135253906,1490.307176,1 에,,1.46759E-06,1.86859E-06,-5.728485039,,-5.72778,-0.13759
-0.13381958,383,1.47095E-06,-0.13381958,1491.833055,1 에,,1.47095E-06,1.87287E-06,-5.727492778,,-5.72611,-0.13605
-0.132293701,384,1.48224E-06,-0.131988525,1493.358934,1 에,,1.48224E-06,1.88725E-06,-5.724171713,,-5.72399,-0.13452
-0.130767822,385,1.49811E-06,-0.130584717,1494.884813,1 에,,1.49811E-06,1.90745E-06,-5.719546784,,-5.7208,-0.13298
-0.129241943,386,1.50696E-06,-0.128479004,1496.410692,1 에,,1.50696E-06,1.91872E-06,-5.716988731,,-5.71697,-0.13145
-0.127716064,387,1.51031E-06,-0.127929688,1497.936571,1 에,,1.51031E-06,1.92299E-06,-5.716022363,,-5.71454,-0.12991
-0.126190186,388,1.53046E-06,-0.126159668,1499.46245,1 에,,1.53046E-06,1.94864E-06,-5.710268879,,-5.71325,-0.12838
-0.124664307,389,1.52374E-06,-0.124450684,1500.988329,1 에,,1.52374E-06,1.94009E-06,-5.71217825,,-5.70995,-0.12684
-0.123138428,390,1.53625E-06,-0.123321533,1502.514208,1 에,,1.53625E-06,1.95602E-06,-5.708626605,,-5.70655,-0.1253
-0.121612549,391,1.56586E-06,-0.121398926,1504.040087,1 에,,1.56586E-06,1.99371E-06,-5.700337802,,-5.70484,-0.12377
-0.12008667,392,1.55853E-06,-0.119689941,1505.565966,1 에,,1.55853E-06,1.98439E-06,-5.702373958,,-5.7016,-0.12223
-0.118560791,393,1.56036E-06,-0.118133545,1507.091845,1 에,,1.56036E-06,1.98672E-06,-5.701864024,,-5.69897,-0.12069
-0.117034912,394,1.58813E-06,-0.116973877,1508.617724,1 에,,1.58813E-06,2.02208E-06,-5.694202528,,-5.69532,-0.11916
-0.115509033,395,1.60278E-06,-0.115234375,1510.143603,1 에,,1.60278E-06,2.04073E-06,-5.690215099,,-5.68994,-0.11762
-0.113983154,396,1.62476E-06,-0.114105225,1511.669482,1 에,,1.62476E-06,2.0687E-06,-5.68430177,,-5.68641,-0.11608
-0.112457275,397,1.62292E-06,-0.112579346,1513.195361,1 에,,1.62292E-06,2.06637E-06,-5.684791483,,-5.68354,-0.11454
-0.110931396,398,1.62415E-06,-0.11050415,1514.72124,1 에,,1.62415E-06,2.06793E-06,-5.684464946,,-5.68275,-0.11301
-0.109405518,399,1.6449E-06,-0.158935547,1516.247119,1 에,,1.6449E-06,2.09435E-06,-5.678951051,,-5.68312,-0.11147
-0.107879639,400,1.62048E-06,-0.107879639,1517.772998,1 에,,1.62048E-06,2.06326E-06,-5.685445295,,-5.68282,-0.10993
-0.10635376,401,1.63208E-06,-0.106414795,1519.298877,1 에,,1.63208E-06,2.07803E-06,-5.682348418,,-5.68211,-0.10839
-0.104827881,402,1.64215E-06,-0.104888916,1520.824756,1 에,,1.64215E-06,2.09085E-06,-5.679676824,,-5.67915,-0.10685
-0.103302002,403,1.66077E-06,-0.102935791,1522.350635,1 에,,1.66077E-06,2.11455E-06,-5.674781279,,-5.67443,-0.10531
-0.101776123,404,1.68854E-06,-0.101501465,1523.876514,1 에,,1.68854E-06,2.14991E-06,-5.667579146,,-5.66976,-0.10377
-0.100250244,405,1.67999E-06,-0.099578857,1525.402393,1 에,,1.67999E-06,2.13903E-06,-5.669782493,,-5.66877,-0.10223
-0.098724365,406,1.69952E-06,-0.098602295,1526.928272,1 에,,1.69952E-06,2.1639E-06,-5.664762598,,-5.66791,-0.10069
-0.097198486,407,1.67145E-06,-0.097167969,1528.454151,1 에,,1.67145E-06,2.12815E-06,-5.671997075,,-5.66533,-0.09915
-0.095672607,408,1.71967E-06,-0.095397949,1529.98003,1 에,,1.71967E-06,2.18955E-06,-5.659645896,,-5.66185,-0.09761
-0.094146729,409,1.73798E-06,-0.094390869,1531.505909,1 에,,1.73798E-06,2.21286E-06,-5.655046088,,-5.66041,-0.09606
-0.09262085,410,1.72241E-06,-0.093170166,1533.031788,1 에,,1.72241E-06,2.19304E-06,-5.658952811,,-5.6551,-0.09452
-0.091094971,411,1.73309E-06,-0.090820313,1534.557667,1 에,,1.73309E-06,2.20664E-06,-5.656267948,,-5.65183,-0.09298
-0.089569092,412,1.79169E-06,-0.089263916,1536.083546,1 에,,1.79169E-06,2.28125E-06,-5.641827736,,-5.64679,-0.09144
-0.088043213,413,1.79108E-06,-0.087799072,1537.609425,1 에,,1.79108E-06,2.28047E-06,-5.641975707,,-5.64177,-0.0899
-0.086517334,414,1.79535E-06,-0.086517334,1539.135304,1 에,,1.79535E-06,2.28591E-06,-5.640940968,,-5.64156,-0.08836
-0.084991455,415,1.78009E-06,-0.084655762,1540.661183,1 에,,1.78009E-06,2.26648E-06,-5.64464784,,-5.64494,-0.08681
-0.083465576,416,1.76208E-06,-0.083618164,1542.187062,1 에,,1.76208E-06,2.24356E-06,-5.649063037,,-5.64704,-0.08527
-0.081939697,417,1.77124E-06,-0.081939697,1543.712941,1 에,,1.77124E-06,2.25521E-06,-5.646812413,,-5.64698,-0.08373
-0.080413818,418,1.77551E-06,-0.080200195,1545.23882,1 에,,1.77551E-06,2.26065E-06,-5.645766099,,-5.64474,-0.08218
-0.078887939,419,1.7981E-06,-0.078643799,1546.764699,1 에,,1.7981E-06,2.28941E-06,-5.640277078,,-5.64297,-0.08064
-0.077362061,420,1.79321E-06,-0.077270508,1548.290578,1 에,,1.79321E-06,2.28319E-06,-5.641458029,,-5.64162,-0.07908
-0.075836182,421,1.78772E-06,-0.075531006,1549.816457,1 에,,1.78772E-06,2.2762E-06,-5.642790449,,-5.63895,-0.07753
-0.074310303,422,1.81244E-06,-0.074127197,1551.342336,1 에,,1.81244E-06,2.30767E-06,-5.636826491,,-5.63797,-0.07599
-0.072784424,423,1.82251E-06,-0.072509766,1552.868215,1 에,,1.82251E-06,2.32049E-06,-5.634420017,,-5.63874,-0.07444
-0.071258545,424,1.79108E-06,-0.071166992,1554.394094,1 에,,1.79108E-06,2.28047E-06,-5.641975707,,-5.64079,-0.0729
-0.069732666,425,1.77185E-06,-0.069458008,1555.919973,1 에,,1.77185E-06,2.25599E-06,-5.646662785,,-5.64314,-0.07135
-0.068206787,426,1.78741E-06,-0.067901611,1557.445852,1 에,,1.78741E-06,2.27581E-06,-5.642864592,,-5.64336,-0.06981
-0.066680908,427,1.80481E-06,-0.066558838,1558.971731,1 에,,1.80481E-06,2.29795E-06,-5.638658496,,-5.64076,-0.06826
-0.065155029,428,1.80878E-06,-0.064849854,1560.49761,1 에,,1.80878E-06,2.30301E-06,-5.637704889,,-5.63689,-0.06671
-0.06362915,429,1.81671E-06,-0.063446045,1562.023489,1 에,,1.81671E-06,2.31311E-06,-5.635803934,,-5.63427,-0.06517
-0.062103271,430,1.83807E-06,-0.062011719,1563.549368,1 에,,1.83807E-06,2.34031E-06,-5.630726953,,-5.63343,-0.06362
-0.060577393,431,1.8338E-06,-0.060638428,1565.075247,1 에,,1.8338E-06,2.33487E-06,-5.631737612,,-5.63221,-0.06207
-0.059051514,432,1.82617E-06,-0.05847168,1566.601126,1 에,,1.82617E-06,2.32515E-06,-5.633548231,,-5.63037,-0.06052
-0.057525635,433,1.85211E-06,-0.057250977,1568.127005,1 에,,1.85211E-06,2.35818E-06,-5.627422679,,-5.62785,-0.05897
-0.055999756,434,1.87164E-06,-0.056121826,1569.652884,1 에,,1.87164E-06,2.38305E-06,-5.622866852,,-5.62512,-0.05742
-0.054473877,435,1.88141E-06,-0.053649902,1571.178763,1 에,,1.88141E-06,2.39548E-06,-5.620606735,,-5.62006,-0.05588
-0.052947998,436,1.88141E-06,-0.053131104,1572.704642,1 에,,1.88141E-06,2.39548E-06,-5.620606735,,-5.617,-0.05432
-0.051422119,437,1.92841E-06,-0.051605225,1574.230521,1 에,,1.92841E-06,2.45532E-06,-5.609891461,,-5.6146,-0.05277
-0.04989624,438,1.90857E-06,-0.049710083,1575.7564,1 에,,1.90857E-06,2.43007E-06,-5.614381939,,-5.61389,-0.05122
-0.048370361,439,1.91223E-06,-0.048657227,1577.282279,1 에,,1.91223E-06,2.43473E-06,-5.613549426,,-5.61267,-0.04967
-0.046844482,440,1.90735E-06,-0.046569824,1578.808158,1 에,,1.90735E-06,2.42851E-06,-5.614659799,,-5.61271,-0.04812
-0.045318604,441,1.94092E-06,-0.045709229,1580.334037,1 에,,1.94092E-06,2.47125E-06,-5.607082701,,-5.60898,-0.04657
-0.043792725,442,1.94427E-06,-0.043817139,1581.859916,1 에,,1.94427E-06,2.47553E-06,-5.606332211,,-5.6058,-0.04502
-0.042266846,443,1.96838E-06,-0.042144775,1583.385795,1 에,,1.96838E-06,2.50622E-06,-5.600980102,,-5.60116,-0.04347
-0.040740967,444,1.96899E-06,-0.040545654,1584.911674,1 에,,1.96899E-06,2.507E-06,-5.600845458,,-5.60002,-0.04191
-0.039215088,445,1.99493E-06,-0.039511108,1586.437553,1 에,,1.99493E-06,2.54003E-06,-5.595161331,,-5.59813,-0.04036
-0.037689209,446,1.96594E-06,-0.037472534,1587.963432,1 에,,1.96594E-06,2.50312E-06,-5.601519096,,-5.59733,-0.03881
-0.03616333,447,1.99188E-06,-0.03565979,1589.489311,1 에,,1.99188E-06,2.53614E-06,-5.595826204,,-5.59792,-0.03726
-0.034637451,448,1.97906E-06,-0.034185791,1591.01519,1 에,,1.97906E-06,2.51982E-06,-5.598629836,,-5.60174,-0.0357
-0.033111572,449,1.95221E-06,-0.033377075,1592.541069,1 에,,1.95221E-06,2.48563E-06,-5.604563466,,-5.60264,-0.03415
-0.031585693,450,1.94366E-06,-0.031451416,1594.066948,1 에,,1.94366E-06,2.47475E-06,-5.606468567,,-5.60114,-0.0326
-0.030059814,451,1.99615E-06,-0.029962158,1595.592827,1 에,,1.99615E-06,2.54158E-06,-5.594895667,,-5.59711,-0.03105
-0.028533936,452,2.02759E-06,-0.099996948,1597.118706,1 에,,2.02759E-06,2.58161E-06,-5.588110193,,-5.59292,-0.02949
-0.027008057,453,2.00348E-06,-0.026742554,1598.644585,1 에,,2.00348E-06,2.55091E-06,-5.593305086,,-5.59157,-0.02794
-0.025482178,454,1.9986E-06,-0.025363159,1600.170464,1 에,,1.9986E-06,2.54469E-06,-5.594364826,,-5.59281,-0.02639
-0.023956299,455,2.00012E-06,-0.024154663,1601.696343,1 에,,2.00012E-06,2.54663E-06,-5.594033379,,-5.59318,-0.02483
-0.02243042,456,2.02148E-06,-0.02230835,1603.222222,1 에,,2.02148E-06,2.57383E-06,-5.589419493,,-5.59103,-0.02328
-0.020904541,457,2.02271E-06,-0.02131958,1604.748101,1 에,,2.02271E-06,2.57539E-06,-5.589157317,,-5.58949,-0.02172
-0.019378662,458,2.02972E-06,-0.019042969,1606.27398,1 에,,2.02972E-06,2.58433E-06,-5.587652868,,-5.58679,-0.02017
-0.017852783,459,2.03522E-06,-0.017822266,1607.799859,1 에,,2.03522E-06,2.59132E-06,-5.586479099,,-5.58544,-0.01861
-0.016326904,460,2.06573E-06,-0.016088867,1609.325738,1 에,,2.06573E-06,2.63018E-06,-5.580015302,,-5.58254,-0.01705
-0.014801025,461,2.05383E-06,-0.014779663,1610.851617,1 에,,2.05383E-06,2.61502E-06,-5.582524752,,-5.57989,-0.0155
-0.013275146,462,2.08191E-06,-0.013320923,1612.377496,1 에,,2.08191E-06,2.65077E-06,-5.576628101,,-5.57904,-0.01394
-0.011749268,463,2.07703E-06,-0.011700439,1613.903375,1 에,,2.07703E-06,2.64455E-06,-5.577647872,,-5.57786,-0.01239
-0.010223389,464,2.07306E-06,-0.009960938,1615.429254,1 에,,2.07306E-06,2.6395E-06,-5.578478202,,-5.57529,-0.01084
-0.00869751,465,2.11365E-06,-0.008398437,1616.955133,1 에,,2.11365E-06,2.69118E-06,-5.570057329,,-5.57232,-0.00928
-0.007171631,466,2.12189E-06,-0.007058716,1618.481012,1 에,,2.12189E-06,2.70167E-06,-5.568367587,,-5.56684,-0.00772
-0.005645752,467,2.1521E-06,-0.005380249,1620.006891,1 에,,2.1521E-06,2.74014E-06,-5.562227513,,-5.56322,-0.00616
-0.004119873,468,2.16522E-06,-0.004278564,1621.53277,1 에,,2.16522E-06,2.75685E-06,-5.559587417,,-5.56264,-0.00461
-0.002593994,469,2.14447E-06,-0.00256958,1623.058649,1 에,,2.14447E-06,2.73042E-06,-5.563769863,,-5.5601,-0.00305
-0.001068115,470,2.16278E-06,-0.000952148,1624.584528,1 에,,2.16278E-06,2.75374E-06,-5.560077384,,-5.55791,-0.00149
0.000457764,471,2.20612E-06,0.000167847,1626.110407,1 에,,2.20612E-06,2.80891E-06,-5.551461592,,-5.55485,6.74E-05
0.001983643,472,2.19696E-06,0.002215576,1627.636286,1 에,,2.19696E-06,2.79726E-06,-5.553267643,,-5.55437,0.00162
0.003509521,473,2.18842E-06,0.003594971,1629.162165,1 에,,2.18842E-06,2.78638E-06,-5.554960094,,-5.55678,0.00318
0.0050354,474,2.14935E-06,0.005325317,1630.688044,1 에,,2.14935E-06,2.73664E-06,-5.562782128,,-5.55735,0.00475
0.006561279,475,2.18628E-06,0.006710815,1632.213923,1 에,,2.18628E-06,2.78366E-06,-5.555384239,,-5.5537,0.00631
0.008087158,476,2.24182E-06,0.008306885,1633.739802,1 에,,2.24182E-06,2.85438E-06,-5.544488892,,-5.54893,0.00787
0.009613037,477,2.24579E-06,0.00982666,1635.265681,1 에,,2.24579E-06,2.85943E-06,-5.543721013,,-5.54517,0.00944
0.011138916,478,2.23114E-06,0.011260986,1636.79156,1 에,,2.23114E-06,2.84078E-06,-5.546563032,,-5.54453,0.01099
0.012664795,479,2.22198E-06,0.013168335,1638.317439,1 에,,2.22198E-06,2.82912E-06,-5.548348785,,-5.54811,0.01256
0.014190674,480,2.2406E-06,0.014260864,1639.843318,1 에,,2.2406E-06,2.85282E-06,-5.544725436,,-5.54698,0.0141
0.015716553,481,2.21344E-06,0.016091919,1641.369197,1 에,,2.21344E-06,2.81824E-06,-5.550022139,,-5.54276,0.01564
0.017242432,482,2.29614E-06,0.017419434,1642.895076,1 에,,2.29614E-06,2.92354E-06,-5.534091029,,-5.54025,0.01718
0.018768311,483,2.2879E-06,0.018948364,1644.420955,1 에,,2.2879E-06,2.91305E-06,-5.535652305,,-5.53823,0.01872
0.020294189,484,2.25494E-06,0.02074585,1645.946834,1 에,,2.25494E-06,2.87108E-06,-5.54195415,,-5.53648,0.02026
0.021820068,485,2.28912E-06,0.021673584,1647.472713,1 에,,2.28912E-06,2.9146E-06,-5.535420651,,-5.5379,0.0218
0.023345947,486,2.29156E-06,0.023684692,1648.998592,1 에,,2.29156E-06,2.91771E-06,-5.534957712,,-5.53502,0.02335
0.024871826,487,2.31506E-06,0.02505188,1650.524471,1 에,,2.31506E-06,2.94763E-06,-5.530526978,,-5.52857,0.02489
0.026397705,488,2.36115E-06,0.026760864,1652.05035,1 에,,2.36115E-06,3.0063E-06,-5.521967219,,-5.52096,0.02643
0.027923584,489,2.41211E-06,0.028234863,1653.576229,1 에,,2.41211E-06,3.07119E-06,-5.512692885,,-5.5151,0.02797
0.029449463,490,2.43927E-06,0.030047607,1655.102108,1 에,,2.43927E-06,3.10578E-06,-5.507830003,,-5.51265,0.02951
0.030975342,491,2.39807E-06,0.031057739,1656.627987,1 에,,2.39807E-06,3.05332E-06,-5.515227792,,-5.50911,0.03105
0.032501221,492,2.43286E-06,0.032693481,1658.153866,1 에,,2.43286E-06,3.09762E-06,-5.508972526,,-5.506,0.03259
0.0340271,493,2.51678E-06,0.034158325,1659.679745,1 에,,2.51678E-06,3.20447E-06,-5.494243822,,-5.50156,0.03413
0.035552979,494,2.50397E-06,0.035290527,1661.205624,1 에,,2.50397E-06,3.18815E-06,-5.496461231,,-5.49401,0.03567
0.037078857,495,2.53845E-06,0.037075806,1662.731503,1 에,,2.53845E-06,3.23206E-06,-5.4905209,,-5.48859,0.03721
0.038604736,496,2.59735E-06,0.038922119,1664.257382,1 에,,2.59735E-06,3.30705E-06,-5.480559226,,-5.48222,0.03875
0.040130615,497,2.63763E-06,0.040405273,1665.783261,1 에,,2.63763E-06,3.35834E-06,-5.473875303,,-5.47219,0.04028
0.041656494,498,2.7179E-06,0.042016602,1667.30914,1 에,,2.7179E-06,3.46053E-06,-5.460857126,,-5.46197,0.04182
0.043182373,499,2.76398E-06,0.043508911,1668.835019,1 에,,2.76398E-06,3.5192E-06,-5.453555449,,-5.45188,0.04336
0.044708252,500,2.82227E-06,0.045080566,1670.360898,1 에,,2.82227E-06,3.59342E-06,-5.444491995,,-5.44525,0.0449
0.046234131,501,2.84058E-06,0.046722412,1671.886777,1 에,,2.84058E-06,3.61673E-06,-5.441683442,,-5.44602,0.04644
0.04776001,502,2.7771E-06,0.047769165,1673.412656,1 에,,2.7771E-06,3.53591E-06,-5.451498424,,-5.45194,0.04798
0.049285889,503,2.71698E-06,0.04989624,1674.938535,1 에,,2.71698E-06,3.45937E-06,-5.461003443,,-5.45816,0.04952
0.050811768,504,2.71301E-06,0.051483154,1676.464414,1 에,,2.71301E-06,3.45432E-06,-5.461638055,,-5.4575,0.05105
0.052337646,505,2.79602E-06,0.05291748,1677.990293,1 에,,2.79602E-06,3.56E-06,-5.448549529,,-5.44894,0.05259
0.053863525,506,2.89734E-06,0.053955078,1679.516172,1 에,,2.89734E-06,3.68901E-06,-5.433090589,,-5.43717,0.05413
0.055389404,507,2.94617E-06,0.055419922,1681.042051,1 에,,2.94617E-06,3.75118E-06,-5.425832522,,-5.42561,0.05567
0.056915283,508,2.99286E-06,0.057312012,1682.56793,1 에,,2.99286E-06,3.81063E-06,-5.419003641,,-5.41714,0.05721
0.058441162,509,3.06549E-06,0.058990479,1684.093809,1 에,,3.06549E-06,3.9031E-06,-5.408589875,,-5.41015,0.05874
0.059967041,510,3.1131E-06,0.060516357,1685.619688,1 에,,3.1131E-06,3.96372E-06,-5.401897069,,-5.40178,0.06028
0.06149292,511,3.1723E-06,0.062072754,1687.145567,1 에,,3.1723E-06,4.0391E-06,-5.393715323,,-5.39107,0.06182
0.063018799,512,3.25623E-06,0.063415527,1688.671446,1 에,,3.25623E-06,4.14596E-06,-5.382375397,,-5.38347,0.06335
0.064544678,513,3.34167E-06,0.065063477,1690.197325,1 에,,3.34167E-06,4.25475E-06,-5.371125697,,-5.37525,0.06489
0.066070557,514,3.31085E-06,0.066589355,1691.723204,1 에,,3.31085E-06,4.21551E-06,-5.375150107,,-5.37101,0.06643
0.067596436,515,3.40179E-06,0.068084717,1693.249083,1 에,,3.40179E-06,4.3313E-06,-5.363381815,,-5.36703,0.06796
0.069122314,516,3.38776E-06,0.069641113,1694.774962,1 에,,3.38776E-06,4.31343E-06,-5.365177714,,-5.35826,0.0695
0.070648193,517,3.5202E-06,0.071563721,1696.300841,1 에,,3.5202E-06,4.48206E-06,-5.348522217,,-5.34997,0.07104
0.072174072,518,3.62274E-06,0.072357178,1697.82672,1 에,,3.62274E-06,4.61262E-06,-5.336052511,,-5.34599,0.07257
0.073699951,519,3.52661E-06,0.07409668,1699.352599,1 에,,3.52661E-06,4.49022E-06,-5.347732283,,-5.34042,0.07411
0.07522583,520,3.58734E-06,0.076019287,1700.878478,1 에,,3.58734E-06,4.56754E-06,-5.340317183,,-5.33608,0.07564
0.076751709,521,3.69995E-06,0.077606201,1702.404357,1 에,,3.69995E-06,4.71092E-06,-5.326893889,,-5.33206,0.07718
0.078277588,522,3.76129E-06,0.07824707,1703.930236,1 에,,3.76129E-06,4.78903E-06,-5.319752888,,-5.32273,0.07872
0.079803467,523,3.74725E-06,0.080322266,1705.456115,1 에,,3.74725E-06,4.77115E-06,-5.321376817,,-5.31614,0.08025
0.081329346,524,3.88794E-06,0.082092285,1706.981994,1 에,,3.88794E-06,4.95028E-06,-5.305370388,,-5.30607,0.08179
0.082855225,525,3.97156E-06,0.083526611,1708.507873,1 에,,3.97156E-06,5.05674E-06,-5.296129014,,-5.29413,0.08332
0.084381104,526,4.17053E-06,0.085327148,1710.033752,1 에,,4.17053E-06,5.31009E-06,-5.2748984,,-5.28022,0.08486
0.085906982,527,4.1925E-06,0.086303711,1711.559631,1 에,,4.1925E-06,5.33806E-06,-5.272616304,,-5.27005,0.08639
0.087432861,528,4.31458E-06,0.088348389,1713.08551,1 에,,4.31458E-06,5.49349E-06,-5.260151839,,-5.26178,0.08792
0.08895874,529,4.3866E-06,0.08972168,1714.611389,1 에,,4.3866E-06,5.58519E-06,-5.252962176,,-5.25235,0.08946
0.090484619,530,4.49768E-06,0.090637207,1716.137268,1 에,,4.49768E-06,5.72662E-06,-5.242101264,,-5.23806,0.09099
0.092010498,531,4.75464E-06,0.092254639,1717.663147,1 에,,4.75464E-06,6.05379E-06,-5.217972363,,-5.22138,0.09253
0.093536377,532,4.91608E-06,0.093811035,1719.189026,1 에,,4.91608E-06,6.25934E-06,-5.203471235,,-5.20271,0.09406
0.095062256,533,5.14893E-06,0.095275879,1720.714905,1 에,,5.14893E-06,6.55582E-06,-5.18337325,,-5.18468,0.09559
0.096588135,534,5.31586E-06,0.097290039,1722.240784,1 에,,5.31586E-06,6.76836E-06,-5.169516597,,-5.168,0.09713
0.098114014,535,5.53192E-06,0.098724365,1723.766663,1 에,,5.53192E-06,7.04346E-06,-5.152213882,,-5.15203,0.09866
0.099639893,536,5.75745E-06,0.100524902,1725.292542,1 에,,5.75745E-06,7.33061E-06,-5.134859986,,-5.14036,0.1002
0.101165771,537,5.88165E-06,0.10144043,1726.818421,1 에,,5.88165E-06,7.48875E-06,-5.125590495,,-5.12071,0.10173
0.10269165,538,6.1026E-06,0.103637695,1728.3443,1 에,,6.1026E-06,7.77007E-06,-5.10957497,,-5.10041,0.10326
0.104217529,539,6.73218E-06,0.104675293,1729.870179,10 에,,6.73218E-06,8.57167E-06,-5.066934308,,-5.08133,0.10479
0.105743408,540,6.7688E-06,0.106109619,1731.396058,10 에,,6.7688E-06,8.6183E-06,-5.064578275,,-5.0632,0.10633
0.107269287,541,6.9397E-06,0.107574463,1732.921937,10 에,,6.9397E-06,8.8359E-06,-5.053749356,,-5.05061,0.10786
0.108795166,542,7.21436E-06,0.109039307,1734.447816,10 에,,7.21436E-06,9.1856E-06,-5.036892344,,-5.03657,0.10939
0.110321045,543,7.52563E-06,0.110656738,1735.973695,10 에,,7.52563E-06,9.58194E-06,-5.018546744,,-5.01278,0.11092
0.111846924,544,8.22754E-06,0.112335205,1737.499574,10 에,,8.22754E-06,1.04756E-05,-4.979819928,,-4.98703,0.11246
0.113372803,545,8.57849E-06,0.113922119,1739.025453,10 에,,8.57849E-06,1.09225E-05,-4.961678971,,-4.96226,0.11399
0.114898682,546,9.03015E-06,0.114990234,1740.551332,10 에,,9.03015E-06,1.14975E-05,-4.939394851,,-4.9359,0.11552
0.116424561,547,9.50928E-06,0.116821289,1742.077211,10 에,,9.50928E-06,1.21076E-05,-4.916942367,,-4.91422,0.11705
0.117950439,548,1.02081E-05,0.118225098,1743.60309,10 에,,1.02081E-05,1.29974E-05,-4.886143694,,-4.89361,0.11858
0.119476318,549,1.04218E-05,0.119995117,1745.128969,10 에,,1.04218E-05,1.32694E-05,-4.877149108,,-4.87698,0.12011
0.121002197,550,1.07178E-05,0.121337891,1746.654848,10 에,,1.07178E-05,1.36463E-05,-4.864985309,,-4.86083,0.12165
0.122528076,551,1.1203E-05,0.122894287,1748.180727,10 에,,1.1203E-05,1.42641E-05,-4.845755432,,-4.84375,0.12318
0.124053955,552,1.18927E-05,0.124481201,1749.706606,10 에,,1.18927E-05,1.51423E-05,-4.819809411,,-4.82341,0.12471
0.125579834,553,1.24634E-05,0.125915527,1751.232485,10 에,,1.24634E-05,1.58689E-05,-4.799454083,,-4.80191,0.12624
0.127105713,554,1.29181E-05,0.127502441,1752.758364,10 에,,1.29181E-05,1.64478E-05,-4.783891548,,-4.7791,0.12777
0.128631592,555,1.3797E-05,0.128997803,1754.284243,10 에,,1.3797E-05,1.75669E-05,-4.755305309,,-4.75326,0.1293
0.130157471,556,1.47705E-05,0.130584717,1755.810122,10 에,,1.47705E-05,1.88064E-05,-4.725694455,,-4.72795,0.13083
0.13168335,557,1.56769E-05,0.132232666,1757.336001,10 에,,1.56769E-05,1.99604E-05,-4.699830251,,-4.70577,0.13236
0.133209229,558,1.59546E-05,0.133514404,1758.86188,10 에,,1.59546E-05,2.0314E-05,-4.692204237,,-4.68886,0.13389
0.134735107,559,1.65405E-05,0.135101318,1760.387759,10 에,,1.65405E-05,2.10601E-05,-4.67654053,,-4.67469,0.13542
0.136260986,560,1.73279E-05,0.136779785,1761.913638,10 에,,1.73279E-05,2.20625E-05,-4.656344428,,-4.65752,0.13695
0.137786865,561,1.81366E-05,0.138244629,1763.439517,10 에,,1.81366E-05,2.30922E-05,-4.636534086,,-4.63404,0.13848
0.139312744,562,1.93604E-05,0.139892578,1764.965396,10 에,,1.93604E-05,2.46504E-05,-4.608176642,,-4.60956,0.14001
0.140838623,563,2.05048E-05,0.14151001,1766.491275,10 에,,2.05048E-05,2.61075E-05,-4.583235175,,-4.58466,0.14154
0.142364502,564,2.15607E-05,0.142608643,1768.017154,10 에,,2.15607E-05,2.74519E-05,-4.56142765,,-4.56062,0.14307
0.143890381,565,2.27753E-05,0.14440918,1769.543033,10 에,,2.27753E-05,2.89984E-05,-4.537626375,,-4.53873,0.1446
0.14541626,566,2.39349E-05,0.145782471,1771.068912,10 에,,2.39349E-05,3.04749E-05,-4.516057601,,-4.51471,0.14613
0.146942139,567,2.53601E-05,0.14743042,1772.594791,10 에,,2.53601E-05,3.22895E-05,-4.490938793,,-4.48904,0.14765
0.148468018,568,2.72003E-05,0.149017334,1774.12067,10 에,,2.72003E-05,3.46325E-05,-4.46051591,,-4.46367,0.14918
0.149993896,569,2.87079E-05,0.150695801,1775.646549,10 에,,2.87079E-05,3.6552E-05,-4.437088672,,-4.43746,0.15071
0.151519775,570,3.02948E-05,0.152160645,1777.172428,10 에,,3.02948E-05,3.85725E-05,-4.413721794,,-4.41054,0.15224
0.153045654,571,3.24097E-05,0.153686523,1778.698307,10 에,,3.24097E-05,4.12653E-05,-4.3844153,,-4.38475,0.15377
0.154571533,572,3.45886E-05,0.155059814,1780.224186,10 에,,3.45886E-05,4.40396E-05,-4.356156608,,-4.35895,0.1553
0.156097412,573,3.62335E-05,0.156677246,1781.750065,10 에,,3.62335E-05,4.6134E-05,-4.335979349,,-4.33525,0.15682
0.157623291,574,3.80859E-05,0.158355713,1783.275943,10 에,,3.80859E-05,4.84925E-05,-4.314325231,,-4.31398,0.15835
0.15914917,575,3.99323E-05,0.159790039,1784.801822,10 에,,3.99323E-05,5.08433E-05,-4.293766089,,-4.29379,0.15988
0.160675049,576,4.21051E-05,0.161224365,1786.327701,10 에,,4.21051E-05,5.36099E-05,-4.270755152,,-4.27116,0.16141
0.162200928,577,4.43115E-05,0.162872314,1787.85358,10 에,,4.43115E-05,5.64192E-05,-4.2485732,,-4.24659,0.16293
0.163726807,578,4.7406E-05,0.164215088,1789.379459,10 에,,4.7406E-05,6.03592E-05,-4.219256516,,-4.22006,0.16446
0.165252686,579,5.04913E-05,0.16583252,1790.905338,10 에,,5.04913E-05,6.42876E-05,-4.191873045,,-4.19217,0.16599
0.166778564,580,5.37231E-05,0.167419434,1792.431217,10 에,,5.37231E-05,6.84024E-05,-4.164928456,,-4.16419,0.16751
0.168304443,581,5.71777E-05,0.169128418,1793.957096,10 에,,5.71777E-05,7.2801E-05,-4.137862939,,-4.1393,0.16904
0.169830322,582,6.02386E-05,0.170776367,1795.482975,10 에,,6.02386E-05,7.66982E-05,-4.115214669,,-4.1157,0.17057
0.171356201,583,6.30188E-05,0.171813965,1797.008854,100 에,,6.30188E-05,8.0238E-05,-4.09561976,,-4.09334,0.17209
0.17288208,584,6.64978E-05,0.173370361,1798.534733,100 에,,6.64978E-05,8.46676E-05,-4.072282586,,-4.0734,0.17362
0.174407959,585,6.95496E-05,0.174835205,1800.060612,100 에,,6.95496E-05,8.85533E-05,-4.052795491,,-4.05495,0.17514
0.175933838,586,7.19299E-05,0.176208496,1801.586491,100 에,,7.19299E-05,9.1584E-05,-4.038180234,,-4.03654,0.17667
0.177459717,587,7.50427E-05,0.177764893,1803.11237,100 에,,7.50427E-05,9.55474E-05,-4.019781288,,-4.01839,0.1782
0.178985596,588,7.9071E-05,0.179351807,1804.638249,100 에,,7.9071E-05,0.000100676,-3.997072403,,-3.99803,0.17972
0.180511475,589,8.29773E-05,0.180847168,1806.164128,100 에,,8.29773E-05,0.00010565,-3.976130609,,-3.97536,0.18125
0.182037354,590,8.75244E-05,0.182525635,1807.690007,100 에,,8.75244E-05,0.00011144,-3.952960669,,-3.95392,0.18277
0.183563232,591,9.18274E-05,0.184082031,1809.215886,100 에,,9.18274E-05,0.000116918,-3.932117629,,-3.93356,0.1843
0.185089111,592,9.552E-05,0.185546875,1810.741765,100 에,,9.552E-05,0.00012162,-3.914995479,,-3.9124,0.18582
0.18661499,593,0.000100647,0.186950684,1812.267644,100 에,,0.000100647,0.000128148,-3.892289165,,-3.8923,0.18735
0.188140869,594,0.000106079,0.188690186,1813.793523,100 에,,0.000106079,0.000135064,-3.869460049,,-3.87187,0.18887
0.189666748,595,0.000110168,0.190063477,1815.319402,100 에,,0.000110168,0.000140271,-3.853032614,,-3.85125,0.1904
0.191192627,596,0.000115631,0.191711426,1816.845281,100 에,,0.000115631,0.000147226,-3.832015211,,-3.83102,0.19192
0.192718506,597,0.00012085,0.193206787,1818.37116,100 에,,0.00012085,0.000153871,-3.81284463,,-3.81319,0.19344
0.194244385,598,0.000126038,0.194580078,1819.897039,100 에,,0.000126038,0.000160476,-3.794589765,,-3.79836,0.19497
0.195770264,599,0.000128021,0.196258545,1821.422918,100 에,,0.000128021,0.000163002,-3.787807851,,-3.78582,0.19649
0.197296143,600,0.00013092,0.197753906,1822.948797,100 에,,0.00013092,0.000166693,-3.778082524,,-3.77593,0.19802
0.198822021,601,0.000135742,0.199157715,1824.474676,100 에,,0.000135742,0.000172832,-3.762375038,,-3.76676,0.19954
0.2003479,602,0.000138062,0.200683594,1826.000555,100 에,,0.000138062,0.000175785,-3.75501722,,-3.75297,0.20106
0.201873779,603,0.000143524,0.202423096,1827.526434,100 에,,0.000143524,0.000182741,-3.738164838,,-3.73421,0.20259
0.203399658,604,0.000152802,0.203948975,1829.052313,100 에,,0.000152802,0.000194553,-3.710962225,,-3.71193,0.20411
0.204925537,605,0.000162689,0.205566406,1830.578192,100 에,,0.000162689,0.000207142,-3.683731134,,-3.68625,0.20563
0.206451416,606,0.000170471,0.206970215,1832.104071,100 에,,0.000170471,0.000217051,-3.663438885,,-3.6633,0.20716
0.207977295,607,0.000178253,0.208435059,1833.62995,100 에,,0.000178253,0.000226959,-3.64405261,,-3.6435,0.20868
0.209503174,608,0.00018457,0.210144043,1835.155829,100 에,,0.00018457,0.000235002,-3.628928034,,-3.62852,0.2102
0.211029053,609,0.000191711,0.211608887,1836.681708,100 에,,0.000191711,0.000244095,-3.612441884,,-3.61619,0.21172
0.212554932,610,0.000193756,0.213165283,1838.207587,100 에,,0.000193756,0.000246698,-3.607834489,,-3.60564,0.21324
0.214080811,611,0.000199829,0.214691162,1839.733466,100 에,,0.000199829,0.00025443,-3.594431146,,-3.59318,0.21477
0.215606689,612,0.000207458,0.216186523,1841.259345,100 에,,0.000207458,0.000264144,-3.578158656,,-3.57693,0.21629
0.217132568,613,0.000218597,0.217712402,1842.785224,100 에,,0.000218597,0.000278327,-3.555444865,,-3.55681,0.21781
0.218658447,614,0.000230194,0.219116211,1844.311103,100 에,,0.000230194,0.000293092,-3.532995709,,-3.53384,0.21933
0.220184326,615,0.000240356,0.220855713,1845.836982,100 에,,0.000240356,0.000306031,-3.514234109,,-3.51134,0.22085
0.221710205,616,0.000256378,0.222320557,1847.362861,100 에,,0.000256378,0.000326431,-3.486208832,,-3.49013,0.22237
0.223236084,617,0.000265289,0.223815918,1848.88874,100 에,,0.000265289,0.000337777,-3.471370137,,-3.47,0.2239
0.224761963,618,0.000278381,0.225280762,1850.414619,100 에,,0.000278381,0.000354446,-3.450449748,,-3.44873,0.22542
0.226287842,619,0.000290497,0.226959229,1851.940498,100 에,,0.000290497,0.000369872,-3.43194849,,-3.43213,0.22694
0.227813721,620,0.00030484,0.228485107,1853.466377,100 에,,0.00030484,0.000388134,-3.411017803,,-3.41557,0.22846
0.2293396,621,0.000308075,0.230041504,1854.992256,100 에,,0.000308075,0.000392253,-3.406433493,,-3.40223,0.22998
0.230865479,622,0.000320404,0.231658936,1856.518135,100 에,,0.000320404,0.000407951,-3.389391881,,-3.39068,0.2315
0.232391357,623,0.000328461,0.233032227,1858.044014,100 에,,0.000328461,0.000418209,-3.378606476,,-3.37909,0.23302
0.233917236,624,0.000338318,0.234680176,1859.569893,100 에,,0.000338318,0.00043076,-3.365764942,,-3.36252,0.23454
0.235443115,625,0.000351532,0.236022949,1861.095772,100 에,,0.000351532,0.000447584,-3.349125038,,-3.34969,0.23606
0.236968994,626,0.000365234,0.237731934,1862.621651,100 에,,0.000365234,0.000465031,-3.332518236,,-3.3386,0.23758
0.238494873,627,0.000364563,0.239227295,1864.14753,100 에,,0.000364563,0.000464176,-3.333317306,,-3.32989,0.2391
0.240020752,628,0.000372894,0.240692139,1865.673409,100 에,,0.000372894,0.000474784,-3.323504152,,-3.32138,0.24062
0.241546631,629,0.000383636,0.242279053,1867.199288,100 에,,0.000383636,0.000488461,-3.31116999,,-3.31118,0.24214
0.24307251,630,0.000397675,0.243927002,1868.725167,100 에,,0.000397675,0.000506335,-3.295562072,,-3.29662,0.24366
0.244598389,631,0.000408234,0.245391846,1870.251046,100 에,,0.000408234,0.000519779,-3.284181089,,-3.28425,0.24518
0.246124268,632,0.000419281,0.246856689,1871.776925,100 에,,0.000419281,0.000533845,-3.272584693,,-3.27349,0.2467
0.247650146,633,0.000424896,0.248504639,1873.302804,100 에,,0.000424896,0.000540995,-3.266806993,,-3.26655,0.24821
0.249176025,634,0.000433655,0.25012207,1874.828683,100 에,,0.000433655,0.000552146,-3.257945738,,-3.25947,0.24973
0.250701904,635,0.000437195,0.251586914,1876.354562,100 에,,0.000437195,0.000556654,-3.25441487,,-3.2503,0.25125
0.252227783,636,0.000452972,0.253051758,1877.880441,100 에,,0.000452972,0.000576742,-3.239018129,,-3.23919,0.25277
0.253753662,637,0.000467499,0.254577637,1879.40632,100 에,,0.000467499,0.000595238,-3.2253094,,-3.22772,0.25429
0.255279541,638,0.000474609,0.256195068,1880.932199,100 에,,0.000474609,0.000604291,-3.218753569,,-3.21829,0.25581
0.25680542,639,0.000481506,0.257629395,1882.458078,100 에,,0.000481506,0.000613073,-3.212487865,,-3.21445,0.25732
0.258331299,640,0.000480682,0.259338379,1883.983957,100 에,,0.000480682,0.000612024,-3.213231685,,-3.21201,0.25884
0.259857178,641,0.000483276,0.260620117,1885.509836,100 에,,0.000483276,0.000615327,-3.210894323,,-3.20848,0.26036
0.261383057,642,0.000491882,0.262145996,1887.035715,100 에,,0.000491882,0.000626284,-3.203228665,,-3.20421,0.26188
0.262908936,643,0.000497864,0.26373291,1888.561594,100 에,,0.000497864,0.0006339,-3.197979358,,-3.20051,0.26339
0.264434814,644,0.000500854,0.265258789,1890.087473,100 에,,0.000500854,0.000637708,-3.195378308,,-3.19488,0.26491
0.265960693,645,0.000502319,0.26675415,1891.613352,100 에,,0.000502319,0.000639573,-3.194109985,,-3.18957,0.26643
0.267486572,646,0.000521729,0.268341064,1893.139231,100 에,,0.000521729,0.000664285,-3.177645307,,-3.18259,0.26794
0.269012451,647,0.000525787,0.269775391,1894.66511,100 에,,0.000525787,0.000669453,-3.174279745,,-3.17279,0.26946
0.27053833,648,0.00053952,0.271575928,1896.190989,100 에,,0.00053952,0.000686939,-3.163082121,,-3.16057,0.27098
0.272064209,649,0.000556732,0.272949219,1897.716868,100 에,,0.000556732,0.000708853,-3.149443558,,-3.15147,0.27249
0.273590088,650,0.000571838,0.27444458,1899.242747,100 에,,0.000571838,0.000728087,-3.137816582,,-3.14108,0.27401
0.275115967,651,0.00057547,0.276031494,1900.768626,100 에,,0.00057547,0.000732711,-3.135067215,,-3.1306,0.27553
0.276641846,652,0.000593475,0.277557373,1902.294505,100 에,,0.000593475,0.000755636,-3.121687202,,-3.12091,0.27704
0.278167725,653,0.000613281,0.278930664,1903.820384,100 에,,0.000613281,0.000780854,-3.107430194,,-3.11162,0.27856
0.279693604,654,0.000620728,0.280181885,1905.346263,1 mA,,0.000620728,0.000790335,-3.102188868,,-3.102,0.28007
0.281219482,655,0.000632019,0.281829834,1906.872142,1 mA,,0.000632019,0.000804712,-3.094359717,,-3.09232,0.28159
0.282745361,656,0.00065033,0.283294678,1908.398021,1 mA,,0.00065033,0.000828025,-3.081956367,,-3.08259,0.2831
